,EMG1,EMG2,EMG3,EMG4,EMG5,EMG6,EMG7,EMG8,EMG9,EMG10,EMG11,EMG12,EMG13,EMG14,EMG15,EMG16
0,3.274287618905048e-08,6.093848590751197e-08,9.607554518696845e-08,8.802873913858898e-07,9.212932399079858e-06,1.2211314457262116e-07,4.878410514459849e-07,1.45065409765973e-07,-8.54675572192596e-08,1.4553399015356046e-07,1.9716464117159906e-07,8.946451437635327e-08,7.007866462216513e-08,1.3547530013350313e-07,3.4732311501523185e-08,3.75740389036377e-07
1,1.6971151174752829e-07,2.636042076492609e-07,2.9816710256485874e-07,1.1566669186905846e-06,1.1559943761723836e-05,2.2957765559422396e-07,5.499634713621997e-07,2.6100509507902587e-07,2.756530411745741e-07,2.1116084772842914e-07,2.8176150787684297e-07,2.7475658863200603e-07,1.689474838895476e-07,2.0678664827368596e-07,1.0040278532481001e-07,5.489580760624555e-07
2,3.0398249117850027e-07,4.6047254346665613e-07,4.918674628524411e-07,1.4275469868571563e-06,1.3828405796131468e-05,3.3378146399954915e-07,6.123611850965228e-07,3.7522831853228894e-07,6.228035369222395e-07,2.7668342743308435e-07,3.6228303771334753e-07,4.5603969270070726e-07,2.6774973754713055e-07,2.776917052100522e-07,1.6637525552098279e-07,7.228187418431774e-07
3,4.3420724777120596e-07,6.488128077410778e-07,6.709879389984933e-07,1.6906408292837062e-06,1.6001941946870443e-05,4.3404152728606195e-07,6.741123851444448e-07,4.861506092113034e-07,9.507589490491774e-07,3.4167316492119413e-07,4.379176828648928e-07,6.297663595242681e-07,3.656439253731384e-07,3.468976289767295e-07,2.3183905882847368e-07,8.952396811784643e-07
4,5.59112381280413e-07,8.25958009499918e-07,8.30944280007083e-07,1.9439041177917765e-06,1.8063011296025977e-05,5.297414045521902e-07,7.344010943217044e-07,5.924490235770659e-07,1.2551178951725744e-06,4.0572735904550184e-07,5.079393914634012e-07,7.933647337075517e-07,4.6187612270234645e-07,4.1338199632688727e-07,2.96288794458416e-07,1.0641098883469275e-06
5,6.775343688565796e-07,9.89448450564767e-07,9.69102078987141e-07,2.185650194736575e-06,1.999264328957455e-05,6.203376661476247e-07,7.925197508681294e-07,6.931433484039212e-07,1.5322956291812977e-06,4.68503483877019e-07,5.717081560951579e-07,9.453855081037193e-07,5.557280208049604e-07,4.763894968629442e-07,3.5952487483537283e-07,1.2273687636188033e-06
6,7.884242267073288e-07,1.1372787375273275e-06,1.084611819211448e-06,2.4145369587039445e-06,2.1771092409093248e-05,7.053899793069279e-07,8.479223928704668e-07,7.8756071332414e-07,1.779584609189115e-06,5.297342512912623e-07,6.286819137777788e-07,1.0853173743816306e-06,6.464691163136756e-07,5.353379281879129e-07,4.215460085461432e-07,1.383193892370018e-06
7,8.908886464492532e-07,1.2681872062649415e-06,1.1779119348710231e-06,2.6293834098682046e-06,2.337963346384145e-05,7.8456909344827e-07,9.003103069039861e-07,8.7525583295288e-07,1.9953452527112002e-06,5.892110475959183e-07,6.784207184457986e-07,1.2132156655219513e-06,7.334149210705899e-07,5.897809242786236e-07,4.824055149640618e-07,1.5301605239833462e-06
8,9.842593476963844e-07,1.3818736843912126e-06,1.2502196800749988e-06,2.8288966953563774e-06,2.4803222404543793e-05,8.576355510038827e-07,9.496605886068453e-07,9.55971232729716e-07,2.179133165970608e-06,6.46737986379655e-07,7.206446116206076e-07,1.3293437901740798e-06,8.16089657893062e-07,6.394595598872999e-07,5.421163569190745e-07,1.667220699958673e-06
9,1.0681117919457319e-06,1.4790234686479473e-06,1.3031858445812081e-06,3.0115448153761863e-06,2.6033009794244696e-05,9.244548738409543e-07,9.961718943930138e-07,1.0296256385719572e-06,2.331622383928119e-06,7.021083811503503e-07,7.55352253127003e-07,1.4339642894418707e-06,8.943455874812009e-07,6.843238624363353e-07,6.006221352446764e-07,1.79353445087138e-06
10,1.1422427268445791e-06,1.561064537902571e-06,1.3386677730803075e-06,3.175771023729431e-06,2.70670096892088e-05,9.850748480937872e-07,1.0401609555813949e-06,1.0962824696713217e-06,2.454423195894473e-06,7.551331984397189e-07,7.828596735455755e-07,1.5273070655515026e-06,9.683061715160467e-07,7.244639448302226e-07,6.578187055470714e-07,1.908299287770862e-06
11,1.2066717969410002e-06,1.6297412597524275e-06,1.3585502044119265e-06,3.3204504431883536e-06,2.7907711608673028e-05,1.0397888404466241e-06,1.0819536424942752e-06,1.156091796718064e-06,2.549967800236204e-06,8.056522784326565e-07,8.036851647699733e-07,1.609606623957021e-06,1.0381726576343278e-06,7.600393339231477e-07,7.136206701538128e-07,2.0106731220426322e-06
12,1.2616712423180744e-06,1.686769402506933e-06,1.3646700912402984e-06,3.4452424452738354e-06,2.8557962209744168e-05,1.089107834474232e-06,1.1218249210107322e-06,1.2092328949823648e-06,2.621435478341442e-06,8.534994381714634e-07,8.184193720181201e-07,1.681081470447334e-06,1.1040477014082174e-06,7.91267513204213e-07,7.680260805071753e-07,2.0998073783009797e-06
13,1.3077724120898502e-06,1.7337075548952692e-06,1.3588730432794975e-06,3.5505404380376986e-06,2.9018614601348885e-05,1.1336566551237312e-06,1.1599825393146621e-06,1.2559140639493274e-06,2.6725208406390894e-06,8.984958626219912e-07,8.276877758010585e-07,1.7418939026749496e-06,1.1658587574255516e-06,8.184295606298458e-07,8.211067523860638e-07,2.1750060533947095e-06
14,1.345714551041213e-06,1.7719040892820086e-06,1.343068657858679e-06,3.637033994606868e-06,2.9289536016839235e-05,1.174065293626073e-06,1.1965271172812102e-06,1.2964736554439226e-06,2.707027291555846e-06,9.404840967910926e-07,8.321167834804882e-07,1.7922105105432403e-06,1.2233348028130828e-06,8.418884877489212e-07,8.729352817488518e-07,2.236014416449124e-06
15,1.3763563358661748e-06,1.8024587540974719e-06,1.3191702068798228e-06,3.7052541549123255e-06,2.937204006468279e-05,1.2108926940191663e-06,1.2313774209088098e-06,1.3315045912028315e-06,2.728569471287725e-06,9.793567911053217e-07,8.322601887749033e-07,1.8323145742898402e-06,1.276007531131293e-06,8.621325856478535e-07,9.235206079512002e-07,2.2833024387355837e-06
16,1.4005835141898916e-06,1.8263113792020206e-06,1.2889823737595437e-06,3.7554685250201424e-06,2.9270657426258885e-05,1.2445763802740812e-06,1.2642242499282031e-06,1.3618562724043289e-06,2.7405724479057774e-06,1.0150979669212848e-06,8.285684178432817e-07,1.8625944280066404e-06,1.3233128237828208e-06,8.797675389258473e-07,9.727761071415789e-07,2.31808011156683e-06
17,1.4192136361854653e-06,1.8444398090229634e-06,1.254140117796617e-06,3.787897460936705e-06,2.8993940269675507e-05,1.2754365930280188e-06,1.2945832313827646e-06,1.3884970132703934e-06,2.746405081609599e-06,1.0478164994577232e-06,8.214299897685535e-07,1.8834150728660892e-06,1.3648016345253818e-06,8.954193206797535e-07,1.020517173844497e-06,2.3419692442157643e-06
18,1.4329027946594247e-06,1.857968389868852e-06,1.2160947222766516e-06,3.8030082768957337e-06,2.8554587962775887e-05,1.3037662695015933e-06,1.3219700026026705e-06,1.4123529484837069e-06,2.749478400609306e-06,1.0776878072601867e-06,8.112417536365662e-07,1.89509443302252e-06,1.4002907319115537e-06,9.096415020083247e-07,1.0665017575221937e-06,2.3566493014753062e-06
19,1.4420817243691026e-06,1.8680615594583727e-06,1.1761260877845322e-06,3.8017849537904563e-06,2.79690118751824e-05,1.329916192252638e-06,1.346125270720397e-06,1.4342043887199393e-06,2.7533030088205956e-06,1.10483366942098e-06,7.984692332624199e-07,1.8980636076135817e-06,1.429821986026115e-06,9.229078411664816e-07,1.1105185148659728e-06,2.363730946274715e-06
20,1.4469459228143123e-06,1.8757241923294943e-06,1.1353902801150947e-06,3.785964889018419e-06,2.7256330399291942e-05,1.354260590876583e-06,1.3671462406585425e-06,1.4546383086129538e-06,2.7614318529361746e-06,1.1292819969102024e-06,7.836712084879354e-07,1.8930605234004945e-06,1.4534887173281261e-06,9.356532448817862e-07,1.1524642755349852e-06,2.364675587749225e-06
21,1.4475355560259873e-06,1.8816995843781584e-06,1.0949556148589132e-06,3.7581632987686573e-06,2.6436791267054475e-05,1.377098236025477e-06,1.3854410781858143e-06,1.4740405578443625e-06,2.777230141762503e-06,1.1510737051194402e-06,7.674618757712734e-07,1.8812490745255249e-06,1.471267782633549e-06,9.482741005267765e-07,1.1923319381350586e-06,2.3606087775685e-06
22,1.443900961505433e-06,1.8864629484488054e-06,1.0557700747848696e-06,3.721744365619513e-06,2.5529784638086437e-05,1.3986262074293669e-06,1.4015729873292381e-06,1.4926169355589605e-06,2.803661804142915e-06,1.1704090081987661e-06,7.504247879322254e-07,1.8642121390887675e-06,1.482975956758464e-06,9.610736421856958e-07,1.230168447778969e-06,2.3521676492963586e-06
23,1.4362456249923063e-06,1.8902007825277604e-06,1.0186059061853915e-06,3.6803960544654254e-06,2.4551877681421555e-05,1.4189698963767856e-06,1.4161218078037084e-06,1.510414592824209e-06,2.8433239487460836e-06,1.1876764093405805e-06,7.330429203583719e-07,1.8437577914822848e-06,1.4883618187141328e-06,9.74220627311559e-07,1.2660741118779882e-06,2.339487182056942e-06
24,1.4249524993007925e-06,1.8927629276736006e-06,9.840726983010826e-07,3.637629702557574e-06,2.351569230736524e-05,1.438148909306614e-06,1.4295934912967356e-06,1.5273061945837914e-06,2.898671666996177e-06,1.2033518870018472e-06,7.156781599497083e-07,1.821633289102805e-06,1.4872262878181314e-06,9.877567985804336e-07,1.30015501633624e-06,2.3223359846829668e-06
25,1.4105193952919073e-06,1.8936557987927916e-06,9.52683712550976e-07,3.596485400457303e-06,2.2430351453155536e-05,1.4560053680978347e-06,1.4423215755010578e-06,1.5429354035585133e-06,2.972168256255127e-06,1.2178615898136405e-06,6.985771381787604e-07,1.7993465219834423e-06,1.47951848521175e-06,1.0016214384036382e-06,1.3324240531882656e-06,2.3004122953234483e-06
26,1.3934742301603162e-06,1.8921222414778773e-06,9.24885155865331e-07,3.55944026217792e-06,2.130316605812087e-05,1.4722130596088673e-06,1.4543764174883546e-06,1.5566841165580849e-06,3.066229651791558e-06,1.2314774408541272e-06,6.818912550616642e-07,1.7781419346849916e-06,1.4654484780107608e-06,1.015660503175998e-06,1.3627525567769223e-06,2.273697613207574e-06
27,1.3742961442623277e-06,1.8872906360805745e-06,9.010570792950894e-07,3.5284197261225895e-06,2.014147361566757e-05,1.4863515822444916e-06,1.465573559024687e-06,1.5677360873737348e-06,3.183070059227777e-06,1.2442965498187852e-06,6.657461033631091e-07,1.7590169846448468e-06,1.445602997068777e-06,1.0296725970211444e-06,1.3908556757410492e-06,2.242636834752852e-06
28,1.3533415003404962e-06,1.878331906703804e-06,8.815490479883528e-07,3.5049391024729233e-06,1.895390055275939e-05,1.4979341101206666e-06,1.475560391015556e-06,1.5752409300494682e-06,3.3245746629758206e-06,1.2563095396822125e-06,6.503395332719227e-07,1.7426913401709725e-06,1.4209790123085793e-06,1.0435532839459428e-06,1.4162990777652916e-06,2.208004715957186e-06
29,1.330819500927582e-06,1.8645803882753337e-06,8.667086111120377e-07,3.490310637666025e-06,1.775084907109826e-05,1.506360463844096e-06,1.4838742294295542e-06,1.5785025398269763e-06,3.492187925363049e-06,1.2674909525167417e-06,6.359560623056868e-07,1.7295520455212799e-06,1.39287494148867e-06,1.0574355515804174e-06,1.4385855888660843e-06,2.1706088089486263e-06
30,1.3068513151497254e-06,1.8456276633649901e-06,8.568515836654009e-07,3.4857544693177628e-06,1.6544220657949143e-05,1.5109126758154817e-06,1.4900183374795035e-06,1.5771095218183234e-06,3.6867764493230436e-06,1.2778748723510767e-06,6.22890798563411e-07,1.7196366938630163e-06,1.3626641686551683e-06,1.0716753140374986e-06,1.4572847461184217e-06,2.131077607417191e-06
31,1.281524743681525e-06,1.821400617796947e-06,8.522220942777335e-07,3.492374081543226e-06,1.5346616347268347e-05,1.5108915485799057e-06,1.493626178268624e-06,1.5709767228986062e-06,3.908496333255442e-06,1.2876185948038993e-06,6.113864451282798e-07,1.7127001702238207e-06,1.3315794922675775e-06,1.0866940437601968e-06,1.472112449375434e-06,2.0897672598628168e-06
32,1.2548760957973045e-06,1.7921936003126484e-06,8.529943885703673e-07,3.5110308371701912e-06,1.417040464770648e-05,1.5058217284505166e-06,1.4945594040043556e-06,1.5603251936159303e-06,4.1566986258747165e-06,1.2970174726385717e-06,6.016169630500158e-07,1.7083894855969474e-06,1.3006307382632555e-06,1.1028126024133472e-06,1.4829464166293106e-06,2.046746594477219e-06
33,1.2268960124290925e-06,1.7586222899069619e-06,8.593214455280418e-07,3.5421368615007863e-06,1.3026931749113272e-05,1.4956153307139512e-06,1.4928101927419488e-06,1.5456541227186813e-06,4.4298654261350885e-06,1.3064402066352294e-06,5.937067528178404e-07,1.7064341798598141e-06,1.2706491187028705e-06,1.1201863263197624e-06,1.4897914258715612e-06,2.0019111901943195e-06
34,1.1976301466462987e-06,1.7214965953813867e-06,8.713847174639484e-07,3.58544309304565e-06,1.1925963688789532e-05,1.480645330377884e-06,1.4883496046863003e-06,1.527726931654187e-06,4.72556401452263e-06,1.3162283547629174e-06,5.877624070775837e-07,1.7066716430630299e-06,1.242374191901928e-06,1.1388485367200975e-06,1.492690018873164e-06,1.9551924378652657e-06
35,1.1672695672951836e-06,1.681638031038663e-06,8.89378714565978e-07,3.6399623052392832e-06,1.0875368012776516e-05,1.4616837366684284e-06,1.481114858952918e-06,1.5075308141540265e-06,5.040450877118284e-06,1.326628648980883e-06,5.838651757109122e-07,1.7089189317251653e-06,1.2165093543233804e-06,1.1587947120574514e-06,1.4916545615279451e-06,1.9067247767865887e-06
36,1.1361182918658218e-06,1.6397198528862321e-06,9.134607069260417e-07,3.704086501459097e-06,9.88097595634311e-06,1.4397036205068846e-06,1.4711190480409664e-06,1.4861567243956364e-06,5.370440577174321e-06,1.3377797993302842e-06,5.82020640761285e-07,1.7129168061101631e-06,1.193707746322852e-06,1.180043165209503e-06,1.4867144636289407e-06,1.8569106456879976e-06
37,1.10449357342303e-06,1.5962212874270345e-06,9.437543144668665e-07,3.775778226889691e-06,8.946536004000191e-06,1.415644219182102e-06,1.4585400234312415e-06,1.4646376881095748e-06,5.7111609961531495e-06,1.3497176516548322e-06,5.821218712418881e-07,1.718401297055109e-06,1.1745101328932492e-06,1.2026304316800826e-06,1.4779990390628984e-06,1.8064173365812687e-06
38,1.0726801849886618e-06,1.551488216678859e-06,9.80396937543199e-07,3.8526444086323e-06,8.073816329069812e-06,1.3902785106923783e-06,1.4437350240102913e-06,1.443857658462411e-06,6.0586991417475805e-06,1.3623485642587502e-06,5.839595001348082e-07,1.7251167497606475e-06,1.1593017541096269e-06,1.2265288627577793e-06,1.4657532280402791e-06,1.756141708685369e-06
39,1.040930202349068e-06,1.5058280392376889e-06,1.0235517899670939e-06,3.9319085224433555e-06,7.263004532693014e-06,1.3642471567087385e-06,1.4271927305645207e-06,1.4245396296182137e-06,6.4104302742125e-06,1.3754041916381058e-06,5.872556155050138e-07,1.7327326085883638e-06,1.1483070836510203e-06,1.2515452327952781e-06,1.450373751675351e-06,1.7071453960295145e-06
40,1.009454147481172e-06,1.4596150676996773e-06,1.0733685821018726e-06,4.010538410782049e-06,6.513318248093988e-06,1.3381657744294587e-06,1.4094209246605738e-06,1.4072152621076341e-06,6.76545517021797e-06,1.3884605010278957e-06,5.916955896448414e-07,1.7407891642225592e-06,1.141581729666243e-06,1.2773110769698298e-06,1.4325176414388863e-06,1.6605396794072762e-06
41,9.784471241756398e-07,1.4133871448386275e-06,1.1299388557205938e-06,4.0856139526491916e-06,5.8235184764526645e-06,1.3126450462978003e-06,1.3908463524284838e-06,1.3921741827729895e-06,7.124230077994432e-06,1.4010462528540835e-06,5.969709828033791e-07,1.74869062176903e-06,1.1390153613492282e-06,1.303408570041235e-06,1.4131155583230757e-06,1.617322577489907e-06
42,9.481600572270508e-07,1.36786555513185e-06,1.1932582746087477e-06,4.1546846392584095e-06,5.19214047724553e-06,1.288204140033094e-06,1.3718291983846988e-06,1.3794533619851376e-06,7.4875623362486345e-06,1.4127549849496595e-06,6.02831135257139e-07,1.7557521465754702e-06,1.1403739196354156e-06,1.329507034084822e-06,1.3931957037158382e-06,1.5782380442019836e-06
43,9.189238057298728e-07,1.323884181722855e-06,1.2631735869539068e-06,4.215915295357931e-06,4.61749680924245e-06,1.265210338552788e-06,1.3527404431545058e-06,1.368845592222723e-06,7.855579021018144e-06,1.4232933245851417e-06,6.091047831143828e-07,1.761327318419348e-06,1.1453321556633434e-06,1.3553409127097614e-06,1.373677529905344e-06,1.5437216569578136e-06
44,8.910813130309036e-07,1.2823083621930638e-06,1.3393302041654733e-06,4.268069477487648e-06,4.097605035523384e-06,1.2439257980650986e-06,1.3339825315933586e-06,1.3599201401316271e-06,8.227080163210931e-06,1.432485413590663e-06,6.156791142661394e-07,1.7649304830875188e-06,1.1534704735761908e-06,1.3805620935101182e-06,1.35526640311905e-06,1.513903375489513e-06
45,8.648836373875063e-07,1.2439781873411756e-06,1.4211497210989577e-06,4.3104692934786735e-06,3.630156142432445e-06,1.2246037780023815e-06,1.3159507752887845e-06,1.3521114912836097e-06,8.59929151151333e-06,1.4402712808420179e-06,6.224620927962426e-07,1.7662938847733796e-06,1.1642428601648795e-06,1.4046548831743088e-06,1.3384297425824635e-06,1.4886227772318032e-06
46,8.40423545578841e-07,1.2096340536558222e-06,1.5078447883042174e-06,4.3430078627896445e-06,3.2125549837117404e-06,1.207535092592886e-06,1.2990071836245408e-06,1.3448612535247759e-06,8.967857396060954e-06,1.446695165127186e-06,6.293844343883329e-07,1.7654020221335822e-06,1.1769361560644802e-06,1.4270068438126263e-06,1.3234384719788372e-06,1.467497007713124e-06
47,8.17652323951826e-07,1.179843582193006e-06,1.5984626015570292e-06,4.366186679832963e-06,2.8420030210842534e-06,1.193001201900362e-06,1.283486964544797e-06,1.3377196144350354e-06,9.327030043440438e-06,1.451852457297007e-06,6.364765913182415e-07,1.7625251076861905e-06,1.1907094777625872e-06,1.4470362478565233e-06,1.3104341835642593e-06,1.450073300222521e-06
48,7.964898183595641e-07,1.154982096096417e-06,1.6918928411412885e-06,4.381106814559531e-06,2.515584422278136e-06,1.1811790604172153e-06,1.2696869181803785e-06,1.33036783265016e-06,9.670033070739058e-06,1.4558053012010299e-06,6.439262781197694e-07,1.7582236281499476e-06,1.2047080933250094e-06,1.4642137000866682e-06,1.2994389272988187e-06,1.4359631183380218e-06
49,7.76968733477954e-07,1.1352520187325143e-06,1.7867889224302614e-06,4.389380692038277e-06,2.2303366492331423e-06,1.1720768541072912e-06,1.2577936914251057e-06,1.32261442109285e-06,9.989645600032007e-06,1.458535060741843e-06,6.520073422416464e-07,1.7533003142867415e-06,1.2181433684228556e-06,1.4779655513915062e-06,1.2903101037585441e-06,1.4248209729989002e-06
50,7.593021917821687e-07,1.1207074735999848e-06,1.8814754332693262e-06,4.392968250203839e-06,1.983316416360106e-06,1.165535031113108e-06,1.2477948823036073e-06,1.314404424619496e-06,1.0279697142726494e-05,1.4599541468542527e-06,6.609494605453159e-07,1.7487142947186016e-06,1.230342158665494e-06,1.487564891000544e-06,1.2827358080853605e-06,1.41621027601013e-06
51,7.438222134598335e-07,1.1112583491136088e-06,1.973941572050808e-06,4.393969514870329e-06,1.7716945738720863e-06,1.1612799923804375e-06,1.239461444821219e-06,1.3057912263836e-06,1.0537530877739017e-05,1.4598968541997384e-06,6.708705151283667e-07,1.7454844343572392e-06,1.2407856057615212e-06,1.4921003187292672e-06,1.276320093225376e-06,1.409551798632503e-06
52,7.308579908660415e-07,1.1066465256571923e-06,2.0619355495400053e-06,4.3944481782606616e-06,1.5928863286416651e-06,1.1589691536408034e-06,1.2324478129887001e-06,1.296826092760493e-06,1.0765352137027777e-05,1.458080201167064e-06,6.817725599750256e-07,1.7445757461294477e-06,1.249096745501287e-06,1.4906188286416146e-06,1.2706776941749887e-06,1.404262153645049e-06
53,7.206640714088555e-07,1.1064245704254457e-06,2.143162787208249e-06,4.396347127743829e-06,1.4446526975214718e-06,1.158173526075444e-06,1.226469862448088e-06,1.2874524798851114e-06,1.0968844659009178e-05,1.4541549630293721e-06,6.935573801679744e-07,1.7467745310425172e-06,1.2550334832283572e-06,1.4824328504412277e-06,1.26543432166545e-06,1.3999722038278726e-06
54,7.134272835675708e-07,1.109968056990771e-06,2.2155924970011967e-06,4.4014589233236795e-06,1.3250929124108482e-06,1.1583682849405157e-06,1.2214281439958088e-06,1.2775108362925338e-06,1.1154480277836088e-05,1.4478695587680872e-06,7.060634623641024e-07,1.7526294670369391e-06,1.258573771449024e-06,1.4673743392670889e-06,1.2601507373088853e-06,1.396599106527137e-06
55,7.092978642756368e-07,1.1165438127440038e-06,2.2777474910457277e-06,4.411328945849293e-06,1.2325429078225219e-06,1.1590046663541619e-06,1.217364958828112e-06,1.2668132377825076e-06,1.1327752896919478e-05,1.4392192109444895e-06,7.191155424374909e-07,1.7624739380843045e-06,1.2600019445799716e-06,1.4458203163957145e-06,1.2542836509876849e-06,1.3941919078061178e-06
56,7.084042809324873e-07,1.1254248221951425e-06,2.3287731143923183e-06,4.42703305786908e-06,1.1655028693574168e-06,1.15956630409707e-06,1.214316714255766e-06,1.2551980265246879e-06,1.1492614950087876e-05,1.4284416926331349e-06,7.325599291329347e-07,1.7764233089209293e-06,1.2598312685103072e-06,1.4185550722244698e-06,1.2472578292082104e-06,1.3927253517842737e-06
57,7.108501893971988e-07,1.1359863949840903e-06,2.3682414538608175e-06,4.448968577263358e-06,1.1226808381072486e-06,1.1595149496737435e-06,1.2122064837449582e-06,1.2425650487445312e-06,1.1651223433374806e-05,1.4158328035641379e-06,7.462991012305125e-07,1.7943579357462357e-06,1.258603657435867e-06,1.3866072964705206e-06,1.2386325666643685e-06,1.3920314005781556e-06
58,7.16692504652755e-07,1.1477262136938787e-06,2.3958293288569357e-06,4.476806607235993e-06,1.1030734907619494e-06,1.1582246445487793e-06,1.2108089244805625e-06,1.228933633643729e-06,1.1803607525690146e-05,1.4015328853054371e-06,7.603023570658476e-07,1.8159833529176086e-06,1.2567571656293249e-06,1.3510925956020475e-06,1.228270093284755e-06,1.3918568309805423e-06
59,7.259147333673482e-07,1.1602004514190888e-06,2.411040307912926e-06,4.509529332399091e-06,1.1059266526414479e-06,1.155054009441262e-06,1.2097617399918437e-06,1.214501590582975e-06,1.1947374823406204e-05,1.3854555306763579e-06,7.745350468074564e-07,1.840889476789744e-06,1.254625338808253e-06,1.3130754651419996e-06,1.2163658401552142e-06,1.3919140124825383e-06
60,7.384334221735379e-07,1.1729090755033974e-06,2.4131568967476137e-06,4.545463213577852e-06,1.1305645402965938e-06,1.149550074246622e-06,1.2086570098157361e-06,1.1996150038712609e-06,1.207768661355486e-05,1.3673347150199733e-06,7.888595563956756e-07,1.8685571207445992e-06,1.2525012250187063e-06,1.2735281964641363e-06,1.2032852343434191e-06,1.3918550515701557e-06
61,7.541373466080775e-07,1.1852190532777579e-06,2.4015181235542624e-06,4.582405840796525e-06,1.17625700399473e-06,1.1416366960880649e-06,1.2072043618074855e-06,1.1846226269572251e-06,1.2187843990255615e-05,1.3467570422217922e-06,8.030254412038414e-07,1.8984547340649886e-06,1.2506914223835795e-06,1.233379232657957e-06,1.1893357444996114e-06,1.3912244397308185e-06
62,7.729103742075834e-07,1.1964207996212888e-06,2.375935042517553e-06,4.6179033049154245e-06,1.2422349109311162e-06,1.1316443701182345e-06,1.205357120052351e-06,1.169725099766821e-06,1.227061159193951e-05,1.3231820611846717e-06,8.167731152514836e-07,1.930252415614113e-06,1.2494936088542174e-06,1.193523025225537e-06,1.1746305429645596e-06,1.3894729024901383e-06
63,7.946166411261506e-07,1.2058954467235372e-06,2.336945218049131e-06,4.649533518404242e-06,1.3277949020180036e-06,1.1201573002678346e-06,1.2033206263099192e-06,1.1549126004843073e-06,1.2319810278521226e-05,1.2960664616136876e-06,8.299388830107607e-07,1.9639229575187875e-06,1.2491050104418215e-06,1.154740224541109e-06,1.159074794574773e-06,1.3860281034667924e-06
64,8.190712282380846e-07,1.2132369162013806e-06,2.2857812769749134e-06,4.675038644245828e-06,1.4324321887732377e-06,1.1077847326457674e-06,1.2014579479833623e-06,1.1399878812464426e-06,1.2331393744269403e-05,1.2650838065259688e-06,8.424484222718373e-07,1.9995847829459824e-06,1.2495489422307167e-06,1.1176188298025922e-06,1.142464265230645e-06,1.380362636387805e-06
65,8.460117266995173e-07,1.218217712418574e-06,2.2241065142149627e-06,4.692322139555318e-06,1.5559995935146489e-06,1.094992212067858e-06,1.2001469088065914e-06,1.1246872275435293e-06,1.2303531574295916e-05,1.2302933366637349e-06,8.542672789822372e-07,2.037272247272892e-06,1.2506784467073702e-06,1.0825661780246717e-06,1.1246440475645032e-06,1.3720620996175489e-06
66,8.750698384894784e-07,1.2206919192865818e-06,2.153662765290934e-06,4.699433313387576e-06,1.6988511390914222e-06,1.0820571722221302e-06,1.1996414431938914e-06,1.108886286788799e-06,1.223576163291261e-05,1.1921549676332918e-06,8.654025368151479e-07,2.076828389263781e-06,1.252273296278319e-06,1.0498831041325948e-06,1.105579390517747e-06,1.3609381093885379e-06
67,9.057570444963186e-07,1.2205931943968105e-06,2.0760183535500565e-06,4.694628045440339e-06,1.8618855346873308e-06,1.0691242965231567e-06,1.1999797314574205e-06,1.0927430215854233e-06,1.2127610493707918e-05,1.1514171270419257e-06,8.758851768534462e-07,2.1178502666654184e-06,1.2541626769873852e-06,1.0198064941579706e-06,1.085319183904369e-06,1.3471426113240723e-06
68,9.37489344931007e-07,1.2179991048977253e-06,1.992539856606625e-06,4.676519902312224e-06,2.0464459137171443e-06,1.0562920223128281e-06,1.2009630964387614e-06,1.0766475402427534e-06,1.197729000350179e-05,1.1089673386171806e-06,8.857038441706187e-07,2.1596519234597996e-06,1.2562403888159846e-06,9.92498439098996e-07,1.064009126070494e-06,1.3311664348339457e-06
69,9.6964010016739e-07,1.2131088377053689e-06,1.904532911338637e-06,4.644280849088907e-06,2.2541118510312945e-06,1.043685353208262e-06,1.2022165248750648e-06,1.0610673930473566e-06,1.1781248276048442e-05,1.0656950517425306e-06,8.947651081534683e-07,2.2013405601771156e-06,1.2583900363497424e-06,9.680322543203443e-07,1.0419715955730516e-06,1.313681674616875e-06
70,1.0015605748598797e-06,1.2061202796962308e-06,1.8133681361650966e-06,4.5978237839705005e-06,2.4864710095214026e-06,1.0314947792057365e-06,1.2033142373058791e-06,1.0464680746805227e-06,1.153499787366065e-05,1.022386562070446e-06,9.028810630168546e-07,2.2419855659013035e-06,1.2604423408511488e-06,9.464018072718047e-07,1.0197014604164376e-06,1.295323599553938e-06
71,1.0325427041694267e-06,1.1971529622224012e-06,1.7204766685189313e-06,4.537908013462796e-06,2.7449614684934432e-06,1.0199521679013146e-06,1.203916802058573e-06,1.0333160328656542e-06,1.1234862361223366e-05,9.796888336907693e-07,9.097541408073355e-07,2.2808137461942534e-06,1.2621631483843354e-06,9.275473923486563e-07,9.977389777014138e-07,1.2765590314846584e-06
72,1.061798845787769e-06,1.1862823440365483e-06,1.6272626554104396e-06,4.466135813753151e-06,3.0308341503416455e-06,1.0092599500153533e-06,1.2038719899848687e-06,1.0220500442064041e-06,1.0879877071227811e-05,9.381507817860602e-07,9.149926277659737e-07,2.3173779815649126e-06,1.263256186452065e-06,9.114032745824635e-07,9.765484703869896e-07,1.2576904303130497e-06
73,1.0885369877509382e-06,1.1736000812755577e-06,1.5350154363445101e-06,4.3848195046978005e-06,3.3451878614979136e-06,9.99538103008675e-07,1.2032560683644506e-06,1.0130053172573843e-06,1.0472962034542719e-05,8.982813827343915e-07,9.181848154717819e-07,2.351536712834873e-06,1.263456034643549e-06,8.979504194598107e-07,9.564787165204034e-07,1.2389126097586514e-06
74,1.1121000360659553e-06,1.1592515107127229e-06,1.4448393325622406e-06,4.296700681886323e-06,3.688935976889122e-06,9.908066310070769e-07,1.2023350338178345e-06,1.006384492028554e-06,1.0020522140174117e-05,8.605514009222347e-07,9.189738579295417e-07,2.3831672549333307e-06,1.2626971964698346e-06,8.872108855460391e-07,9.37740684870948e-07,1.220359884191884e-06
75,1.1320412790190363e-06,1.1434689042852436e-06,1.3576316058324232e-06,4.204559766945659e-06,4.062614090601516e-06,9.83009449024429e-07,1.201461805825585e-06,1.0023323743182475e-06,9.53060900148151e-06,8.253532886654059e-07,9.170799833704631e-07,2.4118303693537306e-06,1.2612198538116338e-06,8.791719845131467e-07,9.203851827393347e-07,1.2021357398340488e-06
76,1.1480569283571975e-06,1.1265617147380602e-06,1.2741356526295083e-06,4.110836069409532e-06,4.46611943988596e-06,9.76093009487655e-07,1.2009845209433262e-06,1.0010448446260578e-06,9.01122091719729e-06,7.929869606831882e-07,9.123512726569332e-07,2.4366306855273e-06,1.2595283533610199e-06,8.737127347447097e-07,9.043394915313376e-07,1.1843026877696022e-06
77,1.159892319449251e-06,1.108835914481915e-06,1.1950157973123275e-06,4.017359587056395e-06,4.898551313583609e-06,9.700845080631359e-07,1.2012079492674542e-06,1.002792579689683e-06,8.46998690294878e-06,7.636687134508833e-07,9.048762028402426e-07,2.456353652139785e-06,1.2582367294912107e-06,8.705978709216233e-07,8.894682058824926e-07,1.166881714655373e-06
78,1.1673571936773516e-06,1.0905296888910123e-06,1.1209023261714034e-06,3.925229236474225e-06,5.358200092841807e-06,9.651190755233064e-07,1.2023656378010978e-06,1.0078380122220022e-06,7.91462025972076e-06,7.375386071701312e-07,8.95003815141113e-07,2.469893012221897e-06,1.2578944655016879e-06,8.695373311608313e-07,8.755983016489697e-07,1.1499229443705454e-06
79,1.1703961284223552e-06,1.071812140874749e-06,1.0523890355450051e-06,3.834854585619337e-06,5.842601327589219e-06,9.614219455009748e-07,1.2045661612280973e-06,1.0163380771493678e-06,7.353020048748327e-06,7.146820209507169e-07,8.832331951960004e-07,2.476769463924443e-06,1.2588756330731336e-06,8.702395623315272e-07,8.62548147913916e-07,1.133559055703052e-06
80,1.1691328673872318e-06,1.0527709070305765e-06,9.899741326794604e-07,3.746126629049867e-06,6.348556734720094e-06,9.592495871469183e-07,1.207752168961074e-06,1.0283226336741432e-06,6.792902749859301e-06,6.951428445031449e-07,8.701233057593578e-07,2.4772813356592946e-06,1.2613316501974948e-06,8.724016658951691e-07,8.501769624888552e-07,1.117977890512456e-06
81,1.163881680100258e-06,1.0333929865773403e-06,9.33989790495262e-07,3.6586177824308386e-06,6.872036288799447e-06,9.588101744565246e-07,1.2117388639224238e-06,1.0437477795075693e-06,6.241384474215715e-06,6.788936580670927e-07,8.562507085723355e-07,2.472144060590694e-06,1.265165294448561e-06,8.756706242553857e-07,8.384123449114311e-07,1.103427507880509e-06
82,1.155117152343251e-06,1.0136257077416075e-06,8.845728703750228e-07,3.5717232250934937e-06,7.4079348619598255e-06,9.602018343198951e-07,1.2163230562509385e-06,1.0625477120954486e-06,5.704711001756789e-06,6.65791571268361e-07,8.421401334444844e-07,2.4621089195833787e-06,1.2700487153192108e-06,8.7963278123415e-07,8.272610355447617e-07,1.0903133768863355e-06
83,1.143396948955183e-06,9.934967914312152e-07,8.416643061065734e-07,3.484703275658281e-06,7.949859700216316e-06,9.633796889423796e-07,1.2213656265187803e-06,1.0846145788686277e-06,5.188096729672803e-06,6.555548056586632e-07,8.282101832361255e-07,2.447967056966067e-06,1.2755091245275802e-06,8.838583785540105e-07,8.167995342232549e-07,1.0792662390255243e-06
84,1.1292610412118401e-06,9.731964850821083e-07,8.050151641198216e-07,3.396651965976515e-06,8.49021529307235e-06,9.681676213224151e-07,1.2267893945801343e-06,1.1097150099535317e-06,4.695673466020552e-06,6.477732461642574e-07,8.148100730458971e-07,2.4307247328598365e-06,1.2810014596576048e-06,8.879642435548041e-07,8.071122749606606e-07,1.0710733696107335e-06
85,1.1131793829676199e-06,9.530709013628277e-07,7.742138596612553e-07,3.306493612871997e-06,9.020630611531872e-06,9.743575717055576e-07,1.2325385669886907e-06,1.1374101290763402e-06,4.230611482953596e-06,6.419791657743558e-07,8.022878604495866e-07,2.41161627107562e-06,1.2859159778398142e-06,8.916072713635252e-07,7.982232755915964e-07,1.066515030606059e-06
86,1.0956027593888985e-06,9.335381117879565e-07,7.487346092749524e-07,3.213116285289601e-06,9.532549874469217e-06,9.818763045959596e-07,1.238566926220972e-06,1.1670136456346986e-06,3.7953257862349996e-06,6.377469252027271e-07,7.909916743310225e-07,2.3919154471458376e-06,1.2896052789519492e-06,8.944586375344245e-07,7.900835787220828e-07,1.0662219310278929e-06
87,1.0770421326906368e-06,9.149778281444946e-07,7.27966797695418e-07,3.115640988109698e-06,1.001780224734703e-05,9.908944843628982e-07,1.2448571395754183e-06,1.1975794816893287e-06,3.391581636525047e-06,6.347266000553564e-07,7.812367998481944e-07,2.372688460412615e-06,1.2914779124965967e-06,8.962803115433173e-07,7.826282208597278e-07,1.0706141462182105e-06
88,1.0580714139495657e-06,8.976436612698528e-07,7.112041353426924e-07,3.013680823498012e-06,1.0469072214562915e-05,1.0017728653886547e-06,1.2514090296736868e-06,1.2279361182037441e-06,3.02047679727833e-06,6.326204745801445e-07,7.73296391849111e-07,2.354660014098233e-06,1.29108617008763e-06,8.970479632167668e-07,7.759021212500403e-07,1.0798949771392667e-06
89,1.0392669786601373e-06,8.81616225079557e-07,6.976277605177639e-07,2.9074452073892723e-06,1.088028550232343e-05,1.0148871815636822e-06,1.2581804864621692e-06,1.2568100261043656e-06,2.682423068882479e-06,6.31175532749347e-07,7.673776631079142e-07,2.3382175278857945e-06,1.2881679197758726e-06,8.969872926887024e-07,7.701753308608903e-07,1.094062860591678e-06
90,1.0211430781191903e-06,8.667933492542588e-07,6.863376820367216e-07,2.797706048911586e-06,1.1246898510829855e-05,1.0304743206519049e-06,1.2650851946375207e-06,1.2830266849821926e-06,2.377191157814414e-06,6.301820406854915e-07,7.63579941631612e-07,2.3234156127751795e-06,1.2826768790523514e-06,8.964932192619369e-07,7.659289650203039e-07,1.1129434358386804e-06
91,1.00410239631503e-06,8.52918506021305e-07,6.764670204213057e-07,2.6857277140788663e-06,1.1565948566979493e-05,1.0485906500962481e-06,1.2720966968457812e-06,1.3056921653914913e-06,2.1039944980770625e-06,6.29475189266525e-07,7.618811129077636e-07,2.3099321367180012e-06,1.2748085978953348e-06,8.960097332833292e-07,7.637239111855825e-07,1.136228085318625e-06
92,9.884389602032096e-07,8.396601388310626e-07,6.673524804574378e-07,2.5731669563197733e-06,1.1835667286690126e-05,1.0691425442612699e-06,1.2793194901989597e-06,1.3242571442089124e-06,1.8615783960908323e-06,6.289571611567133e-07,7.621349664480566e-07,2.2970936273704938e-06,1.2649752096058375e-06,8.959651477334304e-07,7.640865777979058e-07,1.1634668586839569e-06
93,9.744162522138155e-07,8.267141312688508e-07,6.5865676969792e-07,2.4618725350534466e-06,1.2054559745078996e-05,1.0918978753544614e-06,1.2869093575527035e-06,1.338474870379596e-06,1.6483264443537065e-06,6.28605486281901e-07,7.640701262929859e-07,2.2840299327251985e-06,1.253698137145238e-06,8.967498301033655e-07,7.674752408610317e-07,1.1940179322066783e-06
94,9.623262012657762e-07,8.138465033322631e-07,6.503416817622633e-07,2.3535981332555402e-06,1.222022958993052e-05,1.1164648185820591e-06,1.2949158581825515e-06,1.348346544997522e-06,1.4624102034963575e-06,6.284674000087797e-07,7.673440188117053e-07,2.269873481549737e-06,1.2414545471034537e-06,8.986743072959101e-07,7.742576670382029e-07,1.2270286902518682e-06
95,9.524409448347541e-07,8.008558821918757e-07,6.425107184503024e-07,2.2497640926740716e-06,1.2328805072004206e-05,1.1422743527431007e-06,1.303173508888932e-06,1.3540996611649715e-06,1.3019363207569148e-06,6.286578665646235e-07,7.716275303015102e-07,2.2539336843286995e-06,1.2285726062943972e-06,9.019298847626044e-07,7.846665206099445e-07,1.2615439461310907e-06
96,9.449216235368805e-07,7.875545634617245e-07,6.352565782088339e-07,2.1513791668022654e-06,1.2375596582084947e-05,1.1685593052287448e-06,1.3112774375921515e-06,1.3561625760776247e-06,1.165009504315587e-06,6.293196108070272e-07,7.766225156730169e-07,2.235850937833463e-06,1.2152646432224986e-06,9.065849489478829e-07,7.987776610713837e-07,1.2967736334950827e-06
97,9.397668051910203e-07,7.738175751413465e-07,6.286181793898321e-07,2.0590694848708534e-06,1.23565034024876e-05,1.1943251079580426e-06,1.3186439469687737e-06,1.3550900285702717e-06,1.0497000067387793e-06,6.305544392239627e-07,7.820299831298262e-07,2.215690456076539e-06,1.2017669987113281e-06,9.125889249354483e-07,8.165116806947149e-07,1.3323147666091096e-06
98,9.367908777620692e-07,7.596161907183858e-07,6.226094098870368e-07,1.9730928047542426e-06,1.2269290128336304e-05,1.218361343431627e-06,1.3246722998479227e-06,1.3514388625568287e-06,9.53986886578757e-07,6.324173258019871e-07,7.875574474750925e-07,2.1938681454836192e-06,1.1884336260156503e-06,9.197719460406476e-07,8.376354151529066e-07,1.3680715115934302e-06
99,9.356262646535741e-07,7.449928673587186e-07,6.172196347874477e-07,1.893351606690316e-06,1.2114405155493657e-05,1.2393642307595404e-06,1.3289443736761631e-06,1.3456509149817096e-06,8.757759851549263e-07,6.349832711521254e-07,7.929858389102574e-07,2.1709428927175246e-06,1.175685131378383e-06,9.278644607759349e-07,8.617876686032198e-07,1.4039875923313696e-06
100,9.357768707547745e-07,7.300278478560912e-07,6.123778362635249e-07,1.8195085929931679e-06,1.1895347078140451e-05,1.2561762378832837e-06,1.3313416147352403e-06,1.338018453493e-06,8.130386931798717e-07,6.383849310844212e-07,7.982873754779937e-07,2.147503461005483e-06,1.1638810065944353e-06,9.365743378204645e-07,8.88535301184194e-07,1.4398682238177252e-06
101,9.367087572668687e-07,7.148107801555353e-07,6.079481894892888e-07,1.751198614269871e-06,1.16184972470243e-05,1.2680110678595845e-06,1.3320634321713072e-06,1.3287218473318574e-06,7.639749364892557e-07,6.427677953971793e-07,8.037272144848824e-07,2.1241762258882898e-06,1.1532240849410086e-06,9.457084549575379e-07,9.174064916494775e-07,1.475331128337742e-06
102,9.379103597792281e-07,6.993976954702733e-07,6.037740213869482e-07,1.688191129862003e-06,1.1292332024107492e-05,1.274527920101687e-06,1.3315930240969643e-06,1.3178464704983405e-06,7.27040444634996e-07,6.482300567050435e-07,8.098190011171512e-07,2.1015452204201633e-06,1.1437228345560532e-06,9.552245535075892e-07,9.478786968640515e-07,1.5098059172953478e-06
103,9.38877976422361e-07,6.837769512111243e-07,5.997202400018922e-07,1.6303581832113459e-06,1.0926195613947212e-05,1.2757803075873176e-06,1.3305839256419233e-06,1.3053395256638552e-06,7.008264210548811e-07,6.548157313256308e-07,8.171467845374864e-07,2.0800332010044787e-06,1.135207797494332e-06,9.651731707824685e-07,9.79385077703409e-07,1.5425821080825698e-06
104,9.390887092552064e-07,6.678867116259577e-07,5.956965481002761e-07,1.5774826368737986e-06,1.052902086399142e-05,1.2721225452854003e-06,1.3296616035684795e-06,1.2909591539763196e-06,6.839276497288497e-07,6.625343547481824e-07,8.262233974112895e-07,2.0599439115406032e-06,1.127391423221177e-06,9.756307965694996e-07,1.0113928392286416e-06,1.572941590389514e-06
105,9.380820360837497e-07,6.516971582340638e-07,5.916907090484321e-07,1.5290972621756396e-06,1.010833750697341e-05,1.2640742997680593e-06,1.3292529955730671e-06,1.2742920103480825e-06,6.749180262380718e-07,6.713461624592789e-07,8.374609660317919e-07,2.0416150467753572e-06,1.1199566116984766e-06,9.866548996884324e-07,1.0434967534192189e-06,1.6003158438300833e-06
106,9.35650993313361e-07,6.352997601646058e-07,5.87790122298388e-07,1.4844508772458362e-06,9.669862586508345e-06,1.2521498949596513e-06,1.3295290950330122e-06,1.254886352060853e-06,6.724347121121136e-07,6.81119192349549e-07,8.511802884724649e-07,2.0255214190029356e-06,1.1126635122824587e-06,9.982238718650272e-07,1.075428849126525e-06,1.6243697972925223e-06
107,9.319657291260638e-07,6.189074215010226e-07,5.841728104171214e-07,1.4425561056026227e-06,9.217770356878013e-06,1.236758889333799e-06,1.330418134942504e-06,1.2324698025884632e-06,6.752682376568688e-07,6.916212858815212e-07,8.675974082605074e-07,2.0122740896725832e-06,1.105398614859203e-06,1.010216895320684e-06,1.1069766018283166e-06,1.6450004417083598e-06
108,9.274856736942398e-07,6.027746996720954e-07,5.811152507651584e-07,1.4023255692032276e-06,8.755297919140638e-06,1.2182400063541492e-06,1.3316292743841546e-06,1.2071377198855312e-06,6.823673222555627e-07,7.025522623421985e-07,8.867931087950479e-07,2.0025592418020635e-06,1.0981341385169172e-06,1.0224558085513225e-06,1.1378898536593693e-06,1.6622429302710965e-06
109,9.227368626718492e-07,5.871398290462587e-07,5.789965493487072e-07,1.3628208838293468e-06,8.285262545890687e-06,1.196947125167242e-06,1.3326895245736694e-06,1.1793926890285e-06,6.927703603529994e-07,7.135626598785473e-07,9.086914404370833e-07,1.9970579378680124e-06,1.090888890661489e-06,1.0347204469315904e-06,1.1678239791524366e-06,1.676076542639598e-06
110,9.181341669839231e-07,5.722096292387185e-07,5.782368566097313e-07,1.3234782925505883e-06,7.810367734199208e-06,1.1733108417491895e-06,1.3330303661689094e-06,1.1500026739771284e-06,7.055858586742369e-07,7.242821258163116e-07,9.330807917865209e-07,1.9963460053051413e-06,1.0837044590126835e-06,1.0467477441649167e-06,1.1963296687202329e-06,1.686240732583901e-06
111,9.139362784999682e-07,5.581433168397244e-07,5.792107649457358e-07,1.2841391959325419e-06,7.333338474639047e-06,1.147875621542683e-06,1.3321286831888262e-06,1.119770925706344e-06,7.201025744105162e-07,7.344251314873973e-07,9.596900790814217e-07,2.0008335333860585e-06,1.0765673080705398e-06,1.0582834149547868e-06,1.2229270562328975e-06,1.6922121554305073e-06
112,9.103074274159631e-07,5.450555187559805e-07,5.821997802813724e-07,1.2448971904065757e-06,6.856951381984652e-06,1.121299746078503e-06,1.3296383887793328e-06,1.0893650735224875e-06,7.359084069682094e-07,7.439153885294012e-07,9.882453753875016e-07,2.010776699359737e-06,1.0693106957524859e-06,1.0691217248343835e-06,1.2472217301236403e-06,1.6933787629208699e-06
113,9.07411054512639e-07,5.330576978183767e-07,5.87380087491177e-07,1.2059154389857156e-06,6.384052366174418e-06,1.0942868734863654e-06,1.3254515392589605e-06,1.0592734278882883e-06,7.528618528345224e-07,7.528928307359029e-07,1.018427996560724e-06,2.026268009590831e-06,1.0615840156817521e-06,1.0790740503086318e-06,1.2689147745401845e-06,1.6893105176612382e-06
114,9.054716140606069e-07,5.222747104007784e-07,5.948335880147703e-07,1.1673436448815745e-06,5.917609608661e-06,1.0674739958663188e-06,1.3196838774840396e-06,1.0298450076835962e-06,7.709467229228792e-07,7.615912570615166e-07,1.0497904630031083e-06,2.047187400847745e-06,1.0528902213278696e-06,1.0879329543398808e-06,1.2876978696745588e-06,1.6799647940558042e-06
115,9.047774314762735e-07,5.128146877902678e-07,6.045845346817449e-07,1.129349824165065e-06,5.460738779626076e-06,1.041357506308872e-06,1.3125914199416218e-06,1.0013319634726442e-06,7.901468584974098e-07,7.702170891530377e-07,1.0817369887901006e-06,2.073191143333393e-06,1.0426712835067884e-06,1.09549836785482e-06,1.3032082617450282e-06,1.6657317955819974e-06
116,9.05630969211605e-07,5.047570762595005e-07,6.166378673206803e-07,1.0921939766813398e-06,5.0166156723846525e-06,1.0163091798842002e-06,1.3044685579435589e-06,9.738903001507143e-07,8.104006271122096e-07,7.78920488363403e-07,1.113588754648841e-06,2.1037138185552994e-06,1.0304737815486218e-06,1.1016539833080197e-06,1.315117382093313e-06,1.6473325316460588e-06
117,9.083022594032316e-07,4.981802433413823e-07,6.309798440338545e-07,1.0562564423920697e-06,4.588302350245812e-06,9.92649365261344e-07,1.2956077935761822e-06,9.475568684141165e-07,8.315884087641872e-07,7.878108067930905e-07,1.1446792439134975e-06,2.137923692057605e-06,1.0161464490771814e-06,1.1064387575547477e-06,1.3232517007353485e-06,1.6256230433137825e-06
118,9.13028503029004e-07,4.931783874753613e-07,6.475386438378278e-07,1.021983083905531e-06,4.178587499594518e-06,9.707073410705737e-07,1.2862899892831393e-06,9.22252131545642e-07,8.535075427772069e-07,7.969374783053344e-07,1.1744318109051713e-06,2.1746822956393663e-06,9.99905018338294e-07,1.1100502268102252e-06,1.327676346990531e-06,1.601422951403255e-06
119,9.200131959251903e-07,4.898404158679316e-07,6.661474902788945e-07,9.8980995740188e-07,3.7898858843221605e-06,9.508250919881755e-07,1.276751654807854e-06,8.978504472593169e-07,8.758625347634925e-07,8.062494115407541e-07,1.2024489778286017e-06,2.2125593603512e-06,9.822098155457004e-07,1.1127462739622853e-06,1.3287276715583552e-06,1.5754885835158344e-06
120,9.293995657354889e-07,4.882259028010678e-07,6.865382799923571e-07,9.601691491400808e-07,3.424166903106485e-06,9.333014068834089e-07,1.2671681889677757e-06,8.742858731905721e-07,8.982900720457582e-07,8.15603802053252e-07,1.2286284228756493e-06,2.2498694780605864e-06,9.636237057981146e-07,1.114696330577799e-06,1.3269400588771928e-06,1.5485747595563108e-06
121,9.412551297215492e-07,4.883679322195735e-07,7.083630957119581e-07,9.33547624253302e-07,3.082872559278869e-06,9.183141561972317e-07,1.2576574797407346e-06,8.515840713317242e-07,9.203771137399275e-07,8.248146427846327e-07,1.2531845800226074e-06,2.2847349247173445e-06,9.447839182192793e-07,1.1158892641623627e-06,1.3228843805113103e-06,1.5214333435260662e-06
122,9.555616474371619e-07,4.902884047029307e-07,7.312578591290821e-07,9.104757481903687e-07,2.76683435367296e-06,9.058735770366701e-07,1.2482903172865033e-06,8.297910061495347e-07,9.417014872784193e-07,8.336562515975748e-07,1.2764954806826892e-06,2.3152041202519584e-06,9.263873486150752e-07,1.1161762312279326e-06,1.317058900732159e-06,1.4947266116201771e-06
123,9.722014925292445e-07,4.940156748084405e-07,7.549393339320628e-07,8.914435809472423e-07,2.476267555234848e-06,8.958226722892535e-07,1.239138488774809e-06,8.089119232182908e-07,9.619680045330057e-07,8.418422683738438e-07,1.2988977117823813e-06,2.3394286803890404e-06,9.090882596548253e-07,1.1154475326783794e-06,1.3098829742875215e-06,1.4689589340401624e-06
124,9.909667884653577e-07,4.995933871476902e-07,7.792548666996677e-07,8.768410430178408e-07,2.2108858815441215e-06,8.878574868534828e-07,1.2303096069119496e-06,7.889411111911772e-07,9.811229143493875e-07,8.490854923441901e-07,1.320570159199995e-06,2.3559418857519666e-06,8.933913003865757e-07,1.1138272259455609e-06,1.3017242523858219e-06,1.444473398768879e-06
125,1.0116238528400956e-06,5.07055767267438e-07,8.0413104911106e-07,8.669567234385641e-07,1.9700555893362786e-06,8.81545250987533e-07,1.221888907127485e-06,7.699076506362462e-07,9.992851540247717e-07,8.551997514130847e-07,1.3415198541708142e-06,2.3639804816115383e-06,8.796300196839492e-07,1.1117319688495057e-06,1.2929318089530373e-06,1.4214830616299258e-06
126,1.0340299877157405e-06,5.163862264176143e-07,8.294791150904295e-07,8.620227278645702e-07,1.752897578161095e-06,8.763761764704153e-07,1.2138632909892724e-06,7.518543167663409e-07,1.016614155309748e-06,8.601091735970064e-07,1.361641146936584e-06,2.36356303004529e-06,8.680077347527956e-07,1.109767637812854e-06,1.2838396130337694e-06,1.40012161178087e-06
127,1.0581946744888981e-06,5.275061045320047e-07,8.551490840187311e-07,8.622667335345914e-07,1.5583382887611706e-06,8.718845117550879e-07,1.206118045073536e-06,7.348050613781112e-07,1.0332749005231124e-06,8.638167800923775e-07,1.3808219930668017e-06,2.355166636289579e-06,8.586390282928299e-07,1.1085685810717815e-06,1.2746991157661808e-06,1.3804727461163465e-06
128,1.0842139595759446e-06,5.403245708662675e-07,8.809548945932477e-07,8.679135819227691e-07,1.3851353302906315e-06,8.67755976831892e-07,1.1984601134186861e-06,7.187849055247298e-07,1.0494238903386276e-06,8.664826774187207e-07,1.3990125136546038e-06,2.3393240190311676e-06,8.515673588556612e-07,1.108687198864408e-06,1.2656220731879805e-06,1.3625384839141476e-06
129,1.1121918212403248e-06,5.548236071700829e-07,9.06732637842255e-07,8.791652403275221e-07,1.2318797046153325e-06,8.638067561957652e-07,1.1906491871512325e-06,7.038583107181072e-07,1.0651737511791989e-06,8.685459349945344e-07,1.416161520505346e-06,2.316515558163396e-06,8.467882842550865e-07,1.1105456076894625e-06,1.2566203517542047e-06,1.346186500912314e-06
130,1.1422719728984648e-06,5.710882650457848e-07,9.323739178271077e-07,8.962378144440998e-07,1.0970041418838578e-06,8.598633085325995e-07,1.1824357538765363e-06,6.901556680071019e-07,1.080585934459728e-06,8.707085267354485e-07,1.4320852493959396e-06,2.287291131990336e-06,8.442994501450987e-07,1.1143965936988457e-06,1.2476927139161365e-06,1.3311141500520393e-06
131,1.174731269090821e-06,5.892718280974702e-07,9.577913308461004e-07,9.194226148129964e-07,9.788251887143625e-07,8.556588257409574e-07,1.1735395743664502e-06,6.778811171102298e-07,1.0956376605579607e-06,8.737721689110556e-07,1.4464242960996768e-06,2.252374906045604e-06,8.441379735020028e-07,1.120282573375779e-06,1.2388514147498904e-06,1.3168241948744822e-06
132,1.2099921799188772e-06,6.095642997990188e-07,9.828605500841078e-07,9.490782106915179e-07,8.755989423552379e-07,8.508136890358523e-07,1.1636165536941359e-06,6.672734399536162e-07,1.1101582136920938e-06,8.784745456100276e-07,1.4587253021318858e-06,2.2126281822466807e-06,8.463580196726026e-07,1.1280152226517982e-06,1.2300538289315278e-06,1.3026464387478275e-06
133,1.248505129393793e-06,6.321560160180611e-07,1.0074006795103125e-06,9.85551565680003e-07,7.856153286572537e-07,8.449287734991885e-07,1.152330330937485e-06,6.585311595913048e-07,1.1238564906684332e-06,8.854226991903612e-07,1.4685760757128629e-06,2.1688938120151116e-06,8.509571678045454e-07,1.1371811909871865e-06,1.2211330381260519e-06,1.287855748257874e-06
134,1.2905968815458968e-06,6.571901235698232e-07,1.0311562603476269e-06,1.0290947995862547e-06,7.073565599854467e-07,8.377674870731115e-07,1.139491615469681e-06,6.517585809919447e-07,1.1364799921255e-06,8.950856774755224e-07,1.4756953346819385e-06,2.121868145496097e-06,8.578220145664177e-07,1.1471589710122101e-06,1.2118212454146437e-06,1.2718389434329388e-06
135,1.3363976463026497e-06,6.847535501489086e-07,1.0537650681248532e-06,1.0798249761063522e-06,6.396241065465131e-07,8.293844482057689e-07,1.1251413174227652e-06,6.469521177667937e-07,1.147983524752038e-06,9.077818607480856e-07,1.479893457448556e-06,2.072123899407653e-06,8.667482730523496e-07,1.1571528472904792e-06,1.2018118051306682e-06,1.2542226794446563e-06
136,1.3858607793296104e-06,7.148926386708805e-07,1.0747563821893864e-06,1.1377491503809305e-06,5.815436791202558e-07,8.2007444746416e-07,1.1095238202377386e-06,6.440179441340706e-07,1.1585693414844e-06,9.236680819643356e-07,1.4809548075124362e-06,2.02028455741042e-06,8.774824582365145e-07,1.166299231937901e-06,1.1907609183529305e-06,1.2349626359741094e-06
137,1.438807361719649e-06,7.476252835189345e-07,1.0935631983321478e-06,1.2028695816681896e-06,5.324760965154155e-07,8.102264760220251e-07,1.0930132282735938e-06,6.428178236701317e-07,1.1685878799947577e-06,9.427594818334654e-07,1.4786139008129292e-06,1.9672391514066095e-06,8.897117376931962e-07,1.1738392574694802e-06,1.1782401093790476e-06,1.2143720420842408e-06
138,1.494925110439152e-06,7.830020616726274e-07,1.1095446968839044e-06,1.2753341876997715e-06,4.918985138603836e-07,8.002515660832815e-07,1.0760948137351821e-06,6.432035294425522e-07,1.1783797009641533e-06,9.649721514577232e-07,1.4726750163969678e-06,1.9142271695423637e-06,9.030437378170927e-07,1.1792408342571602e-06,1.1637729683727493e-06,1.1930059430343935e-06
139,1.5537255765045048e-06,8.212310866377669e-07,1.12206393931937e-06,1.3555459047825238e-06,4.5930168841160256e-07,7.905923689817849e-07,1.0593905278944456e-06,6.450040032459384e-07,1.1881428440776086e-06,9.90150396954729e-07,1.463128737655124e-06,1.8627037027082392e-06,9.170221741589152e-07,1.1821897119024322e-06,1.1470356239696688e-06,1.1714782605492708e-06
140,1.6145388971546658e-06,8.627673200547823e-07,1.1305836171854668e-06,1.4441949398809168e-06,4.3413219779665054e-07,7.817131656819711e-07,1.0436242865712907e-06,6.480197398632864e-07,1.19787136806781e-06,1.01804623742273e-06,1.4501459319679466e-06,1.8140785326364571e-06,9.311343883136029e-07,1.1824861782992652e-06,1.128059756011722e-06,1.1503602374368936e-06
141,1.6765836974283266e-06,9.083079590065401e-07,1.1347235572636667e-06,1.5422339659684874e-06,4.157732639430197e-07,7.740387238737309e-07,1.029501544647076e-06,6.520701737854915e-07,1.2073500846988774e-06,1.0482833273354112e-06,1.4339893709762124e-06,1.7695243144189758e-06,9.448272658480015e-07,1.1799536070707659e-06,1.1072319211026045e-06,1.1301454196586233e-06
142,1.7390656017384586e-06,9.587541923954537e-07,1.134315767794489e-06,1.6507887311650887e-06,4.03537868220419e-07,7.679041532607641e-07,1.0175829960510172e-06,6.570269907162314e-07,1.2161826218859946e-06,1.0803546092981334e-06,1.4149473075663857e-06,1.7299574631294776e-06,9.575978140827444e-07,1.1744552627739004e-06,1.085117746981711e-06,1.1112626826159014e-06
143,1.801269520723555e-06,1.0151864080387158e-06,1.1294858291027827e-06,1.7709932150032474e-06,3.966677146262038e-07,7.635581126735524e-07,1.0082222586171772e-06,6.62783140238037e-07,1.2238719762350921e-06,1.1136482896890579e-06,1.3933096121480501e-06,1.6961001080318585e-06,9.69082793577892e-07,1.1659848146483272e-06,1.0622777381401635e-06,1.094159813131135e-06
144,1.8626434116169737e-06,1.0788175420822074e-06,1.1206882098560058e-06,1.903797386220284e-06,3.943435859977106e-07,7.611735188875506e-07,1.0015641391066917e-06,6.692084385365715e-07,1.229959548926225e-06,1.1475481086461435e-06,1.3693337175551829e-06,1.6684745416987809e-06,9.790302831546427e-07,1.1546962413039139e-06,1.039173199958238e-06,1.07935974745012e-06
145,1.922856773386558e-06,1.1508928392987445e-06,1.1086143104075744e-06,2.049817535945455e-06,3.9570460610586055e-07,7.608268155757421e-07,9.975555492901435e-07,6.761317860225379e-07,1.2341760505282097e-06,1.1816391727942338e-06,1.3432318952949274e-06,1.6473299059508638e-06,9.872361513060269e-07,1.140842904552562e-06,1.016141279729171e-06,1.0674050232564556e-06
146,1.9818185239586966e-06,1.232564745781568e-06,1.0940399781303956e-06,2.2092495756661477e-06,3.9988654968377316e-07,7.624869095655804e-07,9.959384577931607e-07,6.833497097576508e-07,1.236558932687907e-06,1.2158348340920187e-06,1.3152344490361017e-06,1.6326174672214985e-06,9.93580225560206e-07,1.1247000319211939e-06,9.933828751809905e-07,1.0587570147008038e-06
147,2.0396620987755888e-06,1.3247890240787321e-06,1.0777569557328393e-06,2.3818185668679157e-06,4.061087274176963e-07,7.660579294292674e-07,9.9624198686727e-07,6.906788702817038e-07,1.2375007355329667e-06,1.250272987178181e-06,1.285629622473936e-06,1.6240621956604716e-06,9.980804020518245e-07,1.1065066010285353e-06,9.709974033492017e-07,1.053734815112764e-06
148,2.096712220319444e-06,1.4282690950686268e-06,1.060588522918014e-06,2.566746630127783e-06,4.1379382704991207e-07,7.714424931321485e-07,9.97826749072925e-07,6.980506459675006e-07,1.2376682318762173e-06,1.2851495113346703e-06,1.2546975262323233e-06,1.6212575609864385e-06,1.000827283467556e-06,1.0864425243049621e-06,9.491062482571606e-07,1.052493515213195e-06
149,2.153442449279016e-06,1.5434431643298852e-06,1.0433779610033193e-06,2.762764048113873e-06,4.226258404566941e-07,7.785497060255218e-07,1.0000280041239147e-06,7.055869251160766e-07,1.2377991347418764e-06,1.3206671365011052e-06,1.2226445700694146e-06,1.6237236689768182e-06,1.0018491111203986e-06,1.0646507603915436e-06,9.279668596707933e-07,1.0550164017021782e-06
150,2.2104221738389623e-06,1.6704739991124957e-06,1.0269148503491575e-06,2.9682035726864377e-06,4.3248801279148523e-07,7.87238895517538e-07,1.0023624475627848e-06,7.135840353155128e-07,1.2385477153787079e-06,1.3570117476540005e-06,1.1896291665754248e-06,1.6309617172794407e-06,1.0010504606965922e-06,1.0412776181968882e-06,9.079805860665306e-07,1.0611302331273975e-06
151,2.2682259460397255e-06,1.8092285999473361e-06,1.0118552025574567e-06,3.181160604382519e-06,4.4337226933999776e-07,7.972891739892582e-07,1.004654858337836e-06,7.224026383898802e-07,1.2405241624381024e-06,1.3942702684325654e-06,1.1558354028860622e-06,1.6425327866869925e-06,9.982791754775936e-07,1.016551515965723e-06,8.896211062748175e-07,1.0705538958547281e-06
152,2.3272735036529725e-06,1.9592949650138366e-06,9.986789707806664e-07,3.3996385741642867e-06,4.5535560157768245e-07,8.084662175776069e-07,1.0069735198930775e-06,7.323484970734128e-07,1.24440940068456e-06,1.4323528807909109e-06,1.121531894046327e-06,1.6581197462446048e-06,9.934408641983363e-07,9.908902357533475e-07,8.733267600349136e-07,1.0829459970712149e-06
153,2.3876376378863466e-06,2.1200616327031745e-06,9.87671806749694e-07,3.621627409897857e-06,4.685923730546117e-07,8.206313490836705e-07,1.0094719196274203e-06,7.436041617833627e-07,1.2509687605820352e-06,1.4709731543868954e-06,1.0870656131156702e-06,1.6775189739777644e-06,9.865415829981193e-07,9.648946629370605e-07,8.593979126399758e-07,1.0979212785047226e-06
154,2.4489408228644823e-06,2.2908206975187833e-06,9.789132868649242e-07,3.845072788685207e-06,4.832650738976006e-07,8.337869791804821e-07,1.0123158975795745e-06,7.562025772716397e-07,1.2609837403582797e-06,1.5097315008347182e-06,1.0527813673520876e-06,1.7005569259384975e-06,9.776512767008798e-07,9.392064163733941e-07,8.479567868496232e-07,1.1150409486920776e-06
155,2.5104380825950356e-06,2.470849467795368e-06,9.722807005993273e-07,4.067753256500447e-06,4.995249010542669e-07,8.480316930822589e-07,1.0156970250969221e-06,7.700505625961766e-07,1.2751737750827741e-06,1.5483088944112071e-06,1.0189429979187583e-06,1.7270178603023687e-06,9.668636622119737e-07,9.144043469641412e-07,8.389636149480766e-07,1.13377704075748e-06
156,2.5712366926820967e-06,2.659433021564116e-06,9.674681053208134e-07,4.287428758816564e-06,5.174559769418653e-07,8.634737295964807e-07,1.0198171607149864e-06,7.850210005894957e-07,1.2941213198378657e-06,1.586623556293191e-06,9.857227238935326e-07,1.7567097885550103e-06,9.542600260565843e-07,8.910098790030405e-07,8.322325164519168e-07,1.153461967162435e-06
157,2.6304869233967123e-06,2.855766380771449e-06,9.640142883129056e-07,4.50258999964988e-06,5.370647611168168e-07,8.801653366021736e-07,1.0248164998277957e-06,8.010662906191902e-07,1.3182104774664694e-06,1.624811765360305e-06,9.532324626052965e-07,1.7896173727383973e-06,9.39843489258416e-07,8.695013752911168e-07,8.274391068789413e-07,1.1732667798191477e-06
158,2.687463073405403e-06,3.058742429829317e-06,9.61360871185332e-07,4.7133655462500134e-06,5.582912946220196e-07,8.980813830815156e-07,1.0307072256108615e-06,8.182626005439009e-07,1.3475799205826139e-06,1.6631097945815167e-06,9.21563306768536e-07,1.8259017821635484e-06,9.234904818655736e-07,8.502877480582372e-07,8.241829287587508e-07,1.1922704078373792e-06
159,2.741620312423368e-06,3.2667900327589585e-06,9.589618547337666e-07,4.921884193665872e-06,5.810305832694959e-07,9.171148466084738e-07,1.0373498365787678e-06,8.367516707353789e-07,1.3820908060799525e-06,1.701792077187243e-06,8.908247650309733e-07,1.865698648711783e-06,9.050249312316003e-07,8.336839772825788e-07,8.221388984642595e-07,1.209623798938263e-06
160,2.792691021527348e-06,3.477903839691659e-06,9.564257568416438e-07,5.132043401110493e-06,6.051363337550015e-07,9.370942657766514e-07,1.0444536666427548e-06,8.566551949464994e-07,1.4213345896954402e-06,1.7411922578164135e-06,8.611348551968513e-07,1.9089801475060187e-06,8.844196854325776e-07,8.199071913954026e-07,8.212010308486965e-07,1.2246957258760158e-06
161,2.8407527966241827e-06,3.689796627991147e-06,9.536351024751958e-07,5.349065545675276e-06,6.304120820118947e-07,9.578275271660227e-07,1.0516197571316963e-06,8.78059331703791e-07,1.4646997843700892e-06,1.781738937890205e-06,8.32575864826499e-07,1.9556539619182573e-06,8.619576721741495e-07,8.090864313077217e-07,8.214860274678451e-07,1.2370821932790286e-06
162,2.8862016242304776e-06,3.900043988165819e-06,9.507749468959653e-07,5.579015932155917e-06,6.566162243306338e-07,9.791146615246024e-07,1.0584661348637986e-06,9.010479480169969e-07,1.5114737485062092e-06,1.8239290541006954e-06,8.051974778890128e-07,2.0057094006601456e-06,8.3820183503092e-07,8.012846747916542e-07,8.232048489635256e-07,1.2464845474501144e-06
163,2.9296504351588995e-06,4.1062080446261815e-06,9.482399102882981e-07,5.828204035535295e-06,6.834740271273884e-07,1.0007538867720744e-06,1.0647630994441562e-06,9.256811409363805e-07,1.5609086367380238e-06,1.8681955559420368e-06,7.790414541912232e-07,2.0591625524149604e-06,8.138291526991125e-07,7.965045556758173e-07,8.265263609137181e-07,1.2525918134365129e-06
164,2.971804774072208e-06,4.306000692566893e-06,9.464728174027566e-07,6.102562526031519e-06,7.106829003792449e-07,1.0225991053457578e-06,1.070449139895658e-06,9.51909266826864e-07,1.612209925414758e-06,1.914726649053772e-06,7.541514255804581e-07,2.1158628200137475e-06,7.894883382772148e-07,7.946609781208771e-07,8.315150717420208e-07,1.2550913875063098e-06
165,3.013358144460284e-06,4.497517530019297e-06,9.45838590339071e-07,6.407373666830478e-06,7.379067440246706e-07,1.0445937384328369e-06,1.075513809175178e-06,9.79513850769449e-07,1.664506653721653e-06,1.963354576612858e-06,7.306136253982651e-07,2.1753704448881046e-06,7.657329524556497e-07,7.955583782735787e-07,8.381169763753583e-07,1.253746477037734e-06
166,3.0549305757198266e-06,4.679491805528993e-06,9.465798345479507e-07,6.747480802402076e-06,7.647860258766076e-07,1.0667253212281671e-06,1.0798621391762949e-06,1.0081465978263106e-06,1.716846605723496e-06,2.0135871844806583e-06,7.086144664157285e-07,2.2369480468689378e-06,7.429814049910545e-07,7.988970258870115e-07,8.461501338661334e-07,1.2484383613583332e-06
167,3.097029629128747e-06,4.851462955480407e-06,9.488070308924525e-07,7.127705493559849e-06,7.909964800969541e-07,1.0889618994938243e-06,1.0832774242154912e-06,1.0374650610014493e-06,1.7681809599696157e-06,2.0647943720205524e-06,6.884463534319325e-07,2.299634501150237e-06,7.214938483862264e-07,8.043025547304799e-07,8.553303251523619e-07,1.2392513534517813e-06
168,3.1399678138133414e-06,5.0137825456754375e-06,9.524948367733999e-07,7.553220181353892e-06,8.163012815786451e-07,1.1112038964995438e-06,1.085497953226139e-06,1.0672775307257653e-06,1.817406130968584e-06,2.11646897755209e-06,6.704576406932554e-07,2.3624165159987098e-06,7.013943763595134e-07,8.113583285210682e-07,8.653510476156034e-07,1.2266171359231493e-06
169,3.183708287169956e-06,5.167446889957346e-06,9.575084691089107e-07,8.02980647488808e-06,8.405281641523646e-07,1.1332448639267085e-06,1.0863381896193658e-06,1.0975765589790555e-06,1.8635569787806049e-06,2.1683970125399014e-06,6.549912511278363e-07,2.424408982388591e-06,6.827208610056127e-07,8.19603621557696e-07,8.759403955318705e-07,1.2113226439268957e-06
170,3.2277515317348962e-06,5.313767677128374e-06,9.636505086413164e-07,8.563879920937524e-06,8.634984155021213e-07,1.1547506454396532e-06,1.0857807150993346e-06,1.1284396724079205e-06,1.9060293640156725e-06,2.220643721513046e-06,6.423390642014401e-07,2.484876035702026e-06,6.654460633655711e-07,8.285298320499765e-07,8.868285744868752e-07,1.1943148381539478e-06
171,3.2712324683277142e-06,5.453898822808016e-06,9.706910664518996e-07,9.162096029342115e-06,8.849616714060619e-07,1.175258707780381e-06,1.0839957108466001e-06,1.1599164243769563e-06,1.944653994968887e-06,2.273440451771901e-06,6.32713271503296e-07,2.543109266373955e-06,6.494664941452693e-07,8.37629588277519e-07,8.976883112437295e-07,1.1764668579837727e-06
172,3.3132308791890414e-06,5.588348045726158e-06,9.783634149974347e-07,9.830572957818682e-06,9.045509731839016e-07,1.1942311715675252e-06,1.081271569886859e-06,1.192006906505553e-06,1.979582828470992e-06,2.3271316721596664e-06,6.262288774049396e-07,2.598340315136779e-06,6.346095433105488e-07,8.46440986012548e-07,9.081534225564154e-07,1.1584423908333384e-06
173,3.3530996924374725e-06,5.716691859673624e-06,9.86352054475388e-07,1.057420096792119e-05,9.217735814793459e-07,1.2111801513424038e-06,1.0778826786043459e-06,1.224690827451396e-06,2.0110725838894806e-06,2.382200671929833e-06,6.229106007549803e-07,2.6497437719006216e-06,6.206669657623567e-07,8.545561036489811e-07,9.179142072050936e-07,1.1406635319700989e-06
174,3.390608383420833e-06,5.837537795000152e-06,9.943488700866927e-07,1.1396434559538799e-05,9.36095785574372e-07,1.2257478068811704e-06,1.0739659296981686e-06,1.2579380851526585e-06,2.039350213048553e-06,2.439237939203196e-06,6.227427984057947e-07,2.6964229340958334e-06,6.074409103845404e-07,8.616540445427306e-07,9.267984589315136e-07,1.1233518964826088e-06
175,3.425868902873393e-06,5.948607651066072e-06,1.0021853820144631e-06,1.2299264955637304e-05,9.471532521974021e-07,1.2376487200037445e-06,1.069456714741797e-06,1.291718283266652e-06,2.0646667421843357e-06,2.4988211397627462e-06,6.257270007643457e-07,2.7373123819713367e-06,5.94807045019799e-07,8.675198816276422e-07,9.347683446369029e-07,1.106645394999295e-06
176,3.459188888054444e-06,6.046941683738555e-06,1.009920889091503e-06,1.328289010149626e-05,9.549907569137267e-07,1.246582574450959e-06,1.064073590765672e-06,1.3260290872990397e-06,2.0874034911136775e-06,2.5614545415979838e-06,6.318849000869666e-07,2.7711214564049808e-06,5.82750814664661e-07,8.720067191690704e-07,9.418372270852985e-07,1.090742906951368e-06
177,3.490997828018067e-06,6.129287039615797e-06,1.0177949489563816e-06,1.434522914073764e-05,9.601568244771741e-07,1.2522620991087043e-06,1.057351979561485e-06,1.3609096295977296e-06,2.108043611089527e-06,2.627625171593298e-06,6.412205675929603e-07,2.7965333829637554e-06,5.713451121954099e-07,8.750319519238861e-07,9.479783827309829e-07,1.0759559933147808e-06
178,3.521846280793153e-06,6.192579139237771e-06,1.026103092559361e-06,1.548178213143913e-05,9.635736680125172e-07,1.2545311655511011e-06,1.0487699031068414e-06,1.3964022471183967e-06,2.12702238367876e-06,2.697834210407651e-06,6.537189937911977e-07,2.8126400844687143e-06,5.60708637065702e-07,8.766116260605238e-07,9.531096150185376e-07,1.0626315470225732e-06
179,3.5523934628875777e-06,6.234365170365504e-06,1.0351182698146125e-06,1.668591850400381e-05,9.663006715698797e-07,1.2534119026507577e-06,1.037963567337308e-06,1.432468762709298e-06,2.1446230667879975e-06,2.7724774767679783e-06,6.693870551301685e-07,2.8192634465115342e-06,5.509572227196062e-07,8.768268295986563e-07,9.571374593321546e-07,1.0510468374786034e-06
180,3.583339977481947e-06,6.253088543859389e-06,1.0450993335746904e-06,1.794921233431178e-05,9.693767582657576e-07,1.2489998032885088e-06,1.0249369683014901e-06,1.468916350114648e-06,2.161019141336679e-06,2.851624390376783e-06,6.882596399848892e-07,2.816873925915764e-06,5.421569946386341e-07,8.757478966546776e-07,9.599631845047344e-07,1.0413655164990987e-06
181,3.6153244373871465e-06,6.248220044698607e-06,1.0563402038008402e-06,1.9261599773813145e-05,9.73780233469118e-07,1.2413348867620448e-06,1.0101304667300393e-06,1.5053675138902878e-06,2.17638397223228e-06,2.9348637648333838e-06,7.103546085766813e-07,2.806241593048182e-06,5.343147903154437e-07,8.734310172361451e-07,9.614544327309563e-07,1.0336426680887366e-06
182,3.6488220889777515e-06,6.220275287643656e-06,1.069231469620581e-06,2.0611605532672303e-05,9.8044061758665e-07,1.2304179817107591e-06,9.942974280474503e-07,1.5412538900237489e-06,2.1909040651633743e-06,3.0213156589582747e-06,7.356273783623914e-07,2.7881954160089834e-06,5.273953297963698e-07,8.699967178711783e-07,9.614742515744322e-07,1.02786295727708e-06
183,3.684090258532954e-06,6.170742057771248e-06,1.0843306320454807e-06,2.1986943648524497e-05,9.90287093570205e-07,1.2163623078980604e-06,9.783117782166716e-07,1.5758717396095642e-06,2.2046428539905457e-06,3.109698931546685e-06,7.639379776034538e-07,2.763617918653913e-06,5.213373091274884e-07,8.656902439191521e-07,9.599868796710558e-07,1.0240165480105923e-06
184,3.7211972422989865e-06,6.1018760335278825e-06,1.1023838326595708e-06,2.3375313691347656e-05,1.0043151427201594e-06,1.1995391645869522e-06,9.630508300139973e-07,1.608554376401263e-06,2.2174012843012173e-06,3.198299193861479e-06,7.950353202173743e-07,2.7334637318765097e-06,5.160603562337999e-07,8.608426961719718e-07,9.571719511104371e-07,1.0221497616145672e-06
185,3.7600873330475443e-06,6.016365965629773e-06,1.1242348623832763e-06,2.476482006732102e-05,1.0235854061869142e-06,1.1806133842271323e-06,9.493337855496717e-07,1.6388432097697372e-06,2.2287086575325325e-06,3.284917448166958e-06,8.285808927460047e-07,2.698623300112509e-06,5.114655977159019e-07,8.557828486458053e-07,9.534425357507829e-07,1.0223317763922224e-06
186,3.8005316749020695e-06,5.916959529561771e-06,1.1506640765262344e-06,2.6143566730042636e-05,1.0491257952882825e-06,1.1604721620468566e-06,9.378621659298106e-07,1.6664782370294602e-06,2.2378522899526663e-06,3.3669965909379393e-06,8.641760937863455e-07,2.659710371989057e-06,5.074449285536305e-07,8.508221313264005e-07,9.493219094266333e-07,1.0245815939601486e-06
187,3.841930421409471e-06,5.8060804817167085e-06,1.1822737225722545e-06,2.749830383471911e-05,1.08183565742829e-06,1.140115339507279e-06,9.291830226071566e-07,1.6912233066106505e-06,2.243882163972127e-06,3.441942183920703e-06,9.013432881528192e-07,2.6169919142920144e-06,5.038915473023454e-07,8.463196431366814e-07,9.452674130913503e-07,1.0288236859656792e-06
188,3.8832237166022e-06,5.685461138784107e-06,1.2194634553887869e-06,2.8812788008001656e-05,1.122480212164952e-06,1.1205442546481383e-06,9.236751065337592e-07,1.7127214784862824e-06,2.245737047365877e-06,3.5074679289008276e-06,9.395092855215453e-07,2.570535247639505e-06,5.007164976983795e-07,8.427007647586484e-07,9.415574146694112e-07,1.0348906745138223e-06
189,3.923125052855211e-06,5.556048280795211e-06,1.2624326807272853e-06,3.0067787084099047e-05,1.171741894141893e-06,1.1026540601721542e-06,9.215536346166916e-07,1.730516389024534e-06,2.242539551203112e-06,3.5617761299797046e-06,9.78050912771462e-07,2.520390291695561e-06,4.979129908944087e-07,8.403705872358466e-07,9.382639777575025e-07,1.0425666575054538e-06
190,3.960500817385652e-06,5.418362976572641e-06,1.3111624438553096e-06,3.1243972307375074e-05,1.2302377402363334e-06,1.0871724563931438e-06,9.229033831839989e-07,1.7441636676614497e-06,2.2338911849040845e-06,3.6035499018489578e-06,1.0163595564345272e-06,2.4666639701004776e-06,4.956155237175769e-07,8.396157698594355e-07,9.352786587731854e-07,1.0516362244333024e-06
191,3.994599426917576e-06,5.273006996072003e-06,1.3654177176435397e-06,3.232602571298803e-05,1.298470302961318e-06,1.074670242625885e-06,9.277016832980894e-07,1.7533031377840637e-06,2.220021257653274e-06,3.6319185717508655e-06,1.0538722307874853e-06,2.409566571594994e-06,4.940589277998152e-07,8.405747947633291e-07,9.323699578080107e-07,1.0618789200752575e-06
192,4.025054113725316e-06,5.1209246677756045e-06,1.4248020661245845e-06,3.330521036625092e-05,1.3767690620752376e-06,1.0655828130602325e-06,9.358055769295065e-07,1.7576971977790552e-06,2.201759774168344e-06,3.6465061694453564e-06,1.0900721534579188e-06,2.349507394388658e-06,4.934878128592499e-07,8.432473849360915e-07,9.292681822932898e-07,1.0730384972338424e-06
193,4.051766731340035e-06,4.96338290708284e-06,1.4887981399424291e-06,3.4179496861382955e-05,1.4652627620295144e-06,1.0602065103875709e-06,9.46932460244787e-07,1.7572865672871691e-06,2.1803858790912704e-06,3.647496934239426e-06,1.1244533064498861e-06,2.287168849506452e-06,4.941055253977592e-07,8.475170211424084e-07,9.257917997129218e-07,1.0848433327050304e-06
194,4.074789334082453e-06,4.801823710471824e-06,1.556733687437438e-06,3.495221617918891e-05,1.5638563848310125e-06,1.0587178516629161e-06,9.606587382268706e-07,1.7522264752821026e-06,2.1574529842210186e-06,3.63557856422147e-06,1.1564356760319265e-06,2.2234644939029306e-06,4.960592005446555e-07,8.531987336412731e-07,9.219865712806651e-07,1.097028302559466e-06
195,4.094235702182665e-06,4.637715352024709e-06,1.6277194020324074e-06,3.5630534982914566e-05,1.6722099278823404e-06,1.0612239483033455e-06,9.764538644248474e-07,1.7428158508133212e-06,2.1346335981581114e-06,3.6116934402133214e-06,1.1852782001942147e-06,2.159374902367983e-06,4.994418533244733e-07,8.600765584067257e-07,9.181593633985275e-07,1.109315142911674e-06
196,4.1102294422139604e-06,4.472466149359941e-06,1.700615827326334e-06,3.6224309541795215e-05,1.7897325928437884e-06,1.0677766869232489e-06,9.937548566935125e-07,1.7293222390989394e-06,2.1135407594815746e-06,3.5766894690668587e-06,1.2100829503990748e-06,2.0957482347985343e-06,5.04312585128471e-07,8.678877821200153e-07,9.147660333687853e-07,1.1214546626291793e-06
197,4.122933882847372e-06,4.307429638105888e-06,1.7740455650010868e-06,3.6745058616739644e-05,1.915599823236578e-06,1.0783190632352244e-06,1.0120351713627707e-06,1.7118623678647207e-06,2.09553446218366e-06,3.531050433978466e-06,1.2299230814707276e-06,2.033230259598573e-06,5.1072695919978e-07,8.762946508331986e-07,9.122987391255931e-07,1.133343920022838e-06
198,4.132668461617443e-06,4.143990964155286e-06,1.8464323495339776e-06,3.7204452344200276e-05,2.048856030713551e-06,1.0926094817317868e-06,1.0308074146270199e-06,1.6904542686425184e-06,2.081593632814859e-06,3.474773553448063e-06,1.244025864243905e-06,1.972384752133237e-06,5.187542659302605e-07,8.848826458522709e-07,9.112590673081252e-07,1.1450472526457569e-06
199,4.140007400428232e-06,3.983648304560107e-06,1.916024872204587e-06,3.761190760701263e-05,2.188620286277498e-06,1.110180339636402e-06,1.0495552032897906e-06,1.6651313513087787e-06,2.072282818771468e-06,3.407342431169389e-06,1.2519222408867133e-06,1.913794928397737e-06,5.284636571479255e-07,8.931699026779779e-07,9.121249484174293e-07,1.1566631778065827e-06
200,4.1457380179221784e-06,3.827991753701405e-06,1.980977908815556e-06,3.79718839826069e-05,2.334251400415426e-06,1.1303404273701653e-06,1.0676618698128958e-06,1.6359834307860704e-06,2.0677819290123242e-06,3.3278712151160433e-06,1.2535085948603502e-06,1.8579741131159853e-06,5.39898510579511e-07,9.006735933535377e-07,9.152796205563378e-07,1.168182097026916e-06
201,4.150680504040917e-06,3.678596730907211e-06,2.0395897851996216e-06,3.828263526714013e-05,2.485326276055371e-06,1.152214963895e-06,1.0844191203882956e-06,1.6031434500288612e-06,2.0679455143482778e-06,3.235595927428222e-06,1.248979458234949e-06,1.8052169260718484e-06,5.530805638476255e-07,9.070741021191923e-07,9.209680014441298e-07,1.1794636367429422e-06
202,4.155502456225601e-06,3.5369214249526963e-06,2.090592716924107e-06,3.853735872225352e-05,2.6414579781163403e-06,1.1748613636560057e-06,1.099117004856256e-06,1.5667678329040092e-06,2.0723693698852536e-06,3.1305761227480547e-06,1.2386563371189455e-06,1.7555410435412592e-06,5.680538108709533e-07,9.123476039983078e-07,9.292882269280769e-07,1.1903661223538124e-06
203,4.160630376353594e-06,3.404222526470495e-06,2.1333385809731097e-06,3.87266279967898e-05,2.802075278587593e-06,1.1974715051285545e-06,1.1111065868615284e-06,1.5270078907690527e-06,2.080451897135975e-06,3.0141293094090665e-06,1.2228889270604302e-06,1.7087193197031565e-06,5.849133218401769e-07,9.167280781033716e-07,9.40198308694806e-07,1.2009460470904882e-06
204,4.166190640782238e-06,3.2814457071837057e-06,2.1678535672649996e-06,3.884075503588782e-05,2.966241260903332e-06,1.2195448291001106e-06,1.119768352916191e-06,1.4839981782541904e-06,2.091416081961987e-06,2.8886894589267964e-06,1.2021639891272034e-06,1.6643804409864015e-06,6.037647794079895e-07,9.205593238921374e-07,9.535349789362054e-07,1.211538276347618e-06
205,4.171857792152337e-06,3.169114623543054e-06,2.194775401752224e-06,3.8871707753405234e-05,3.1325651370512785e-06,1.2408930482440023e-06,1.1245066242191233e-06,1.4379134575495302e-06,2.104285737214348e-06,2.7572467517661344e-06,1.1772598037418218e-06,1.6221133627062856e-06,6.246513679424655e-07,9.24167857424285e-07,9.690223108439146e-07,1.2226324580301188e-06
206,4.176670893499143e-06,3.0673087347733703e-06,2.2151628734527585e-06,3.8814488658269154e-05,3.299228388129355e-06,1.2614819824280026e-06,1.1248735115483687e-06,1.3890736302131154e-06,2.1179489864018245e-06,2.6227629920817236e-06,1.1491963262450034e-06,1.5815261015279693e-06,6.475064800686484e-07,9.277919756495185e-07,9.862618666450867e-07,1.2346667960716048e-06
207,4.1790019015188315e-06,2.9757777908208114e-06,2.2302118268737807e-06,3.8667899294849635e-05,3.4640040545130575e-06,1.2812438951090536e-06,1.120695547482919e-06,1.338018364771675e-06,2.131377959318538e-06,2.4878398404050226e-06,1.1190074308973946e-06,1.5422832545747894e-06,6.721372999989523e-07,9.315625885372223e-07,1.0047555255529616e-06,1.247898988116052e-06
208,4.176717624970776e-06,2.8941326281336937e-06,2.240984823945585e-06,3.843485408014096e-05,3.624142555767384e-06,1.2999705158027006e-06,1.1120641670826815e-06,1.2855078217619306e-06,2.143790688505223e-06,2.35467443309603e-06,1.0875513843165383e-06,1.504092941635441e-06,6.982434299828001e-07,9.355234792427526e-07,1.0239666432343e-06,1.2624045192899127e-06
209,4.167449943615491e-06,2.8219659330037797e-06,2.2482440250034587e-06,3.812249736388965e-05,3.7762459048149097e-06,1.3173152548565268e-06,1.0992330582857737e-06,1.2324375666627744e-06,2.1546064577008987e-06,2.2251452624247677e-06,1.055456861043232e-06,1.4666819126866747e-06,7.254570000802849e-07,9.396309427851415e-07,1.0433412564108563e-06,1.278128608810569e-06
210,4.148918037860679e-06,2.7587985946692233e-06,2.2523720406050492e-06,3.7742139141794704e-05,3.916409750716809e-06,1.33287611508288e-06,1.0825133687900308e-06,1.1796880745213008e-06,2.1633719921828367e-06,2.100841722723347e-06,1.0231461938557669e-06,1.4298528738293627e-06,7.533447461006708e-07,9.43722723177078e-07,1.0623051066269737e-06,1.2949249750281236e-06
211,4.119246538797645e-06,2.7039698123865346e-06,2.2533243599908727e-06,3.730872283278412e-05,4.0407684566145735e-06,1.3462682751601254e-06,1.06219271101912e-06,1.1280075086409381e-06,2.169815892891822e-06,1.9830118278246223e-06,9.908708675293835e-07,1.3935170274381798e-06,7.813963552275521e-07,9.475555177688597e-07,1.0803175512927232e-06,1.3126207856577127e-06
212,4.077216933303892e-06,2.65671463790771e-06,2.2506392442294495e-06,3.683960529668752e-05,4.146280712433375e-06,1.3571395999043477e-06,1.0385020980620431e-06,1.0779867778922275e-06,2.1739233206773955e-06,1.8725500114291563e-06,9.58765087883599e-07,1.3576368710732499e-06,8.091236149179264e-07,9.509311030125807e-07,1.0969419986073414e-06,1.3311215712403895e-06
213,4.022447219046731e-06,2.616420171231949e-06,2.2435765100034243e-06,3.6352821607004816e-05,4.231347683319601e-06,1.3652172525930414e-06,1.0116886874999654e-06,1.0300568599052525e-06,2.175865576149287e-06,1.770100447560359e-06,9.2694825378745e-07,1.3222550900612404e-06,8.362328816177636e-07,9.53763529145372e-07,1.111849140407626e-06,1.3504534520412867e-06
214,3.9555017117635575e-06,2.582785970251257e-06,2.231371041076899e-06,3.586519882149285e-05,4.295870930498233e-06,1.3704235792257969e-06,9.82160234324437e-07,9.844686576943067e-07,2.175793240404324e-06,1.676184909360822e-06,8.956198771435279e-07,1.2876588187146524e-06,8.626560934921484e-07,9.560141528115278e-07,1.1247428965340665e-06,1.3706724259316487e-06
215,3.877892612638181e-06,2.555752540431752e-06,2.213488878361518e-06,3.539046395948701e-05,4.340704549310069e-06,1.3729505223744982e-06,9.505379668951578e-07,9.412947079083216e-07,2.1736475270648937e-06,1.5912190728253426e-06,8.650436209800133e-07,1.2544581682296987e-06,8.884301066374835e-07,9.576097282532642e-07,1.1352510198474478e-06,1.3917270087373418e-06
216,3.7919282864309847e-06,2.5353292445833735e-06,2.1897655692634053e-06,3.493734885999871e-05,4.36685411759637e-06,1.3732207251977243e-06,9.175481809683195e-07,9.004767239459374e-07,2.16912094498671e-06,1.515432902522879e-06,8.354463336671456e-07,1.2234335285262591e-06,9.136179449842561e-07,9.584755130994025e-07,1.1428486698501828e-06,1.4133965264166862e-06
217,3.7003799091182153e-06,2.5214713188890655e-06,2.160383877896508e-06,3.450810747782174e-05,4.37489124331061e-06,1.3717915194304337e-06,8.838910803853614e-07,8.619244768566665e-07,2.161763285276054e-06,1.4488162268551316e-06,8.069608673234165e-07,1.1953072080313314e-06,9.38308579022096e-07,9.586731619029252e-07,1.146867668978541e-06,1.4353499682113314e-06
218,3.6060171461223416e-06,2.513998607173322e-06,2.1257419340355357e-06,3.409819359969304e-05,4.364816648576483e-06,1.3692792984722448e-06,8.501969556608215e-07,8.256229328088542e-07,2.1511260732198187e-06,1.3911533686367462e-06,7.796494296610494e-07,1.1706755295483451e-06,9.625961064937687e-07,9.584669947645609e-07,1.1466184807673632e-06,1.457333888328072e-06
219,3.5111823007557204e-06,2.5124802543296053e-06,2.0863120382656283e-06,3.369730631056291e-05,4.336260719311799e-06,1.3663086140884513e-06,8.170113667009629e-07,7.916613368919641e-07,2.136853939963049e-06,1.342119172889868e-06,7.53543871335593e-07,1.1500940787885158e-06,9.865149472825053e-07,9.58209786637527e-07,1.141615316940689e-06,1.4793912638055355e-06
220,3.417546951736931e-06,2.516115861993655e-06,2.0425915165042047e-06,3.3291465379601355e-05,4.2888019812234e-06,1.3634359958478668e-06,7.847755816940865e-07,7.601755477726293e-07,2.1186664286641047e-06,1.3013582834249898e-06,7.286809069269398e-07,1.1341260717207265e-06,1.0099950769839543e-06,9.58176970427499e-07,1.1317934201085062e-06,1.5019078092614384e-06
221,3.3260364789463276e-06,2.5237492990311262e-06,1.995179144427056e-06,3.28659374461839e-05,4.2222595278027285e-06,1.3610450731850647e-06,7.538444032137164e-07,7.31285033124355e-07,2.0962305614553985e-06,1.2685013343031349e-06,7.051432469573263e-07,1.1232978094111133e-06,1.032899088269367e-06,9.584836653479632e-07,1.1175664625507235e-06,1.525429187196557e-06
222,3.2368536152040437e-06,2.534078339345914e-06,1.9448932103998567e-06,3.2408750809141935e-05,4.136875269265405e-06,1.359265803335689e-06,7.24520596746287e-07,7.050757077483958e-07,2.0691236764789105e-06,1.2431328700350202e-06,6.830678372611816e-07,1.1180523216221807e-06,1.0551198793113622e-06,9.59078296044573e-07,1.0996925543217344e-06,1.5504069396659414e-06
223,3.1495849586517454e-06,2.5459306830255402e-06,1.8927956297734061e-06,3.191397782251467e-05,4.033413279335336e-06,1.3579398649848888e-06,6.970547529865323e-07,6.815954450085648e-07,2.0371039300027952e-06,1.2247298225806467e-06,6.625920858348471e-07,1.118742201999817e-06,1.0766397276236428e-06,9.598112940984936e-07,1.0790883077943443e-06,1.5770395361718854e-06
224,3.0633650886148694e-06,2.558357623533763e-06,1.8400622680096518e-06,3.138384519540656e-05,3.913282281422976e-06,1.356623258981297e-06,6.71621053247731e-07,6.608180718029356e-07,2.000527794082067e-06,1.2126097202510857e-06,6.437886706893047e-07,1.125656118682465e-06,1.097484333977228e-06,9.60574738352923e-07,1.0567522668551427e-06,1.605238691792252e-06
225,2.977044027707272e-06,2.5704540193246893e-06,1.787791590119448e-06,3.082923950320017e-05,3.7786638323881232e-06,1.3546430559934376e-06,6.483154645688852e-07,6.42601504104685e-07,1.960521812624072e-06,1.20593605641728e-06,6.266567418082854e-07,1.1390451153314445e-06,1.1176319559515455e-06,9.613942774765188e-07,1.0337617392889341e-06,1.6346729157701557e-06
226,2.8893422836894854e-06,2.5811703964426735e-06,1.7369112391531506e-06,3.026872031717428e-05,3.632507990863964e-06,1.3512319322966573e-06,6.271852548131888e-07,6.26705313406431e-07,1.91875187815054e-06,1.2037482154465737e-06,6.111800793214249e-07,1.1590830620567739e-06,1.1369669619649988e-06,9.623826401629912e-07,1.0111983284473577e-06,1.6649054358852607e-06
227,2.799029350314776e-06,2.589387567686649e-06,1.6882132907308451e-06,2.9726370876912267e-05,3.478328799061734e-06,1.3457149556188307e-06,6.082446022766998e-07,6.128808682577413e-07,1.8769928221781912e-06,1.2049660673318264e-06,5.973983546521747e-07,1.18578045249725e-06,1.1552862978561364e-06,9.636279390838569e-07,9.9002732658628e-07,1.6956441930243454e-06
228,2.7051568209523077e-06,2.5941122327014277e-06,1.6424156937951086e-06,2.9228854174255296e-05,3.319850515307442e-06,1.3376865357580258e-06,5.914607420183234e-07,6.009745898817047e-07,1.836813880051773e-06,1.2083846798409798e-06,5.854209554222905e-07,1.218933144820745e-06,1.172357124416021e-06,9.651097154536961e-07,9.710507792360477e-07,1.7269585197203502e-06
229,2.607284502461648e-06,2.594487661413556e-06,1.6001693888733122e-06,2.8802123104349553e-05,3.1606108076977334e-06,1.32711712690257e-06,5.7677034964468e-07,5.909854025416562e-07,1.799477940220405e-06,1.2126711659284211e-06,5.75377773688346e-07,1.2581286682641122e-06,1.1880108988573486e-06,9.666494255914425e-07,9.54923031840036e-07,1.7592725421276919e-06
230,2.505550023829377e-06,2.5895945590683628e-06,1.5619986377873631e-06,2.8468439780045374e-05,3.003654727978254e-06,1.3143305390889935e-06,5.641523745601273e-07,5.830723832321777e-07,1.7659178711507814e-06,1.216384931336005e-06,5.673707362304856e-07,1.302777953551772e-06,1.2022076238014381e-06,9.6790735331557e-07,9.421541950964365e-07,1.7931390043234104e-06
231,2.400494715347744e-06,2.578351804457345e-06,1.5282307707766204e-06,2.8244472366446044e-05,2.8514263208495276e-06,1.2998412711865973e-06,5.536745162311956e-07,5.775296623850001e-07,1.7366972746209799e-06,1.2181136969294164e-06,5.614614964816535e-07,1.3521205317428513e-06,1.2150255797008746e-06,9.684738792982235e-07,9.331048756562872e-07,1.828992927752194e-06
232,2.292743904019932e-06,2.5597651147153205e-06,1.4989765394777868e-06,2.814067022787245e-05,2.705826528648504e-06,1.2841670576006293e-06,5.454517903423144e-07,5.747397247773038e-07,1.7119904939841085e-06,1.2167301209810909e-06,5.57667119631969e-07,1.405179843870327e-06,1.2265885930851135e-06,9.680215111817443e-07,9.280100586194915e-07,1.8670214204508037e-06
233,2.1827953675536994e-06,2.533367074125694e-06,1.4741257455529544e-06,2.8161336217964823e-05,2.5682800545572646e-06,1.2677543883177137e-06,5.395802833476515e-07,5.751270030146582e-07,1.69162429505083e-06,1.2115483399088707e-06,5.559596121594261e-07,1.4607202340306297e-06,1.2370245152079138e-06,9.663946753142103e-07,9.270153957942547e-07,1.9070951972818442e-06
234,2.071093426233282e-06,2.4995217778635743e-06,1.453317846201001e-06,2.8304938004513677e-05,2.4397170310975e-06,1.2509981924898478e-06,5.361102790105656e-07,5.791206584740955e-07,1.6751954856183608e-06,1.2022087759606604e-06,5.563033182858088e-07,1.5172907202533163e-06,1.246524120890737e-06,9.63596541811288e-07,9.301855516348029e-07,1.9487202447684976e-06
235,1.9582578433481733e-06,2.4594168609187956e-06,1.4359206597358827e-06,2.856467989398457e-05,2.32054221972507e-06,1.2342559140064586e-06,5.350324897462201e-07,5.871102827750725e-07,1.66225558528642e-06,1.1884663111301822e-06,5.587040015580693e-07,1.5733979695865961e-06,1.2553784298474182e-06,9.597374686975205e-07,9.375007966511194e-07,1.991050867306548e-06
236,1.845178612634162e-06,2.414744546979472e-06,1.4210463379224753e-06,2.89293210408757e-05,2.2107170448118195e-06,1.217836088864106e-06,5.362496998613928e-07,5.994008493261638e-07,1.6524909185347238e-06,1.1701385127968619e-06,5.632030425482746e-07,1.6277307202454258e-06,1.2638691973590433e-06,9.549710352073306e-07,9.488685151158604e-07,2.0329503718388658e-06
237,1.7328699536814587e-06,2.367257397450134e-06,1.4076398141258372e-06,2.9384122198128327e-05,2.10995683063346e-06,1.2019842532389624e-06,5.395563228237177e-07,6.161904691891055e-07,1.6457850861586341e-06,1.1472058204575892e-06,5.698387160214376e-07,1.6792677107374232e-06,1.27210874226282e-06,9.49424021905782e-07,9.641234761916576e-07,2.073025613497128e-06
238,1.622220677246257e-06,2.318473349618307e-06,1.3946826693484023e-06,2.991195244898847e-05,2.017899260243467e-06,1.1868791270246732e-06,5.44667443580995e-07,6.375690419258313e-07,1.6421338843904748e-06,1.1199204643643762e-06,5.786661627099892e-07,1.7272176656033064e-06,1.279990337457501e-06,9.431767008063824e-07,9.830327917978188e-07,2.109624081098972e-06
239,1.513830981594507e-06,2.2696066101200562e-06,1.3814358886672976e-06,3.049470180835068e-05,1.9341497855845e-06,1.1726781021457835e-06,5.513252398104164e-07,6.635277440417051e-07,1.6415079284745627e-06,1.0888377148417628e-06,5.898119909983652e-07,1.7709288011971135e-06,1.2872525086353743e-06,9.362800316232443e-07,1.0053567771465187e-06,2.140942882475988e-06
240,1.408016775609758e-06,2.22154800622767e-06,1.3675451367732552e-06,3.111501070132023e-05,1.8582918069439219e-06,1.1596220686164766e-06,5.594342707624413e-07,6.939714364200547e-07,1.6437533164309508e-06,1.0547519162421965e-06,6.03443802594771e-07,1.8098758082975463e-06,1.2935375956801917e-06,9.2873186694286e-07,1.0308989038566272e-06,2.165376434012599e-06
241,1.3049380745669577e-06,2.1747839904530716e-06,1.3529398481587618e-06,3.175797822925712e-05,1.789960638654484e-06,1.148090221904801e-06,5.691034558188252e-07,7.287136411384874e-07,1.6485423187923266e-06,1.0185711405851337e-06,6.196757403159931e-07,1.8436689799157418e-06,1.2983934401138432e-06,9.204653335953782e-07,1.059448398757913e-06,2.181907370114056e-06
242,1.204748301539378e-06,2.129347887049002e-06,1.3376266994599398e-06,3.2412307573056014e-05,1.7289186738529155e-06,1.1385175684064015e-06,5.805501226938227e-07,7.674488648824738e-07,1.6553770188464086e-06,9.811885500363676e-07,6.385305911480156e-07,1.8720180698023376e-06,1.301288159125544e-06,9.11445569900762e-07,1.090673761159475e-06,2.1902196098528407e-06
243,1.107665087901362e-06,2.084899387639558e-06,1.3215121238983462e-06,3.3070601845108086e-05,1.675028862176379e-06,1.1312926111585125e-06,5.939710737963039e-07,8.097280546509433e-07,1.6636405892154206e-06,9.434168446940817e-07,6.599729938071865e-07,1.8946794559339126e-06,1.3017047346099903e-06,9.017956507727863e-07,1.1240782949319389e-06,2.1905193711769156e-06
244,1.0139206541146196e-06,2.0409017771916605e-06,1.3043503735743686e-06,3.3728965249189076e-05,1.6281473990219367e-06,1.1267478204167584e-06,6.094791195453969e-07,8.549530741949849e-07,1.6726664497634637e-06,9.060039737339944e-07,6.839397543571915e-07,1.9114117098577945e-06,1.2992943092367891e-06,8.917993395649192e-07,1.1590271460966006e-06,2.183269041175989e-06
245,9.236507522018086e-07,1.9967929714482923e-06,1.2858669319877457e-06,3.438622909104863e-05,1.5880191582426615e-06,1.125155986665483e-06,6.270966140721459e-07,9.023880703733998e-07,1.6818261366122615e-06,8.696652152471901e-07,7.103246465503284e-07,1.9219023104421663e-06,1.2939942709883498e-06,8.817708614189853e-07,1.1948016314197633e-06,2.168947324396554e-06
246,8.368477769405488e-07,1.952073606965015e-06,1.2660004171920052e-06,3.504300029216853e-05,1.5542033579231373e-06,1.1266849594735773e-06,6.467864585668456e-07,9.512162527464993e-07,1.6906347428884857e-06,8.350748265255172e-07,7.38950289291174e-07,1.9256811763594435e-06,1.2860255552877982e-06,8.719134822691843e-07,1.2306437777115655e-06,2.1479222025465494e-06
247,7.534332274143651e-07,1.906315298192762e-06,1.2451020413394972e-06,3.570055894599544e-05,1.5260309785013637e-06,1.131372683287311e-06,6.685054869897464e-07,1.000658434860638e-06,1.6988212544110127e-06,8.028341168056316e-07,7.695582035057413e-07,1.922153223059117e-06,1.2757703262350193e-06,8.622587766800819e-07,1.2657757695695828e-06,2.120525292488841e-06
248,6.733539984979121e-07,1.8591341037219186e-06,1.2239408250056038e-06,3.635945584042452e-05,1.5026433420406452e-06,1.1391156200545395e-06,6.922255928526949e-07,1.0500652104189932e-06,1.7062944166052757e-06,7.73452881645936e-07,8.017935285091464e-07,1.910796017225071e-06,1.2636133903628233e-06,8.526921430731702e-07,1.2994356830517772e-06,2.087223880400245e-06
249,5.965919691256171e-07,1.8101668670785155e-06,1.203497966876103e-06,3.701749864205258e-05,1.4831601492539341e-06,1.1496468985586208e-06,7.179260048372169e-07,1.0988834250040896e-06,1.7130063792038005e-06,7.473467115491984e-07,8.351913914112294e-07,1.8913388290707477e-06,1.2498714410749003e-06,8.430471816423573e-07,1.3309666707107278e-06,2.048721538945307e-06
250,5.231240344581736e-07,1.759082147286292e-06,1.1847068215867397e-06,3.7667449016938604e-05,1.4669257543003368e-06,1.162533105631528e-06,7.456136343531218e-07,1.1465501856256952e-06,1.7188301770530008e-06,7.248547550310812e-07,8.692110808470909e-07,1.863740262005305e-06,1.2348658409557528e-06,8.33244033309621e-07,1.3598973329611365e-06,2.005980748840952e-06
251,4.529178945578082e-07,1.7056561074039292e-06,1.1683231627885435e-06,3.829619771906179e-05,1.4537060013019404e-06,1.1772249911641042e-06,7.753354926674957e-07,1.192448794657684e-06,1.7235322864539363e-06,7.062889567382808e-07,9.033013992541269e-07,1.8280420209337914e-06,1.2190213957550897e-06,8.234002286232674e-07,1.3859265191454672e-06,1.9602011677046175e-06
252,3.859644826736115e-07,1.6499033097019029e-06,1.1549427578347727e-06,3.888674871901592e-05,1.4437337562004003e-06,1.1931602612443125e-06,8.071228384865132e-07,1.2359472721903612e-06,1.726824850754484e-06,6.919696328423794e-07,9.369299072764816e-07,1.7843488052878694e-06,1.2028408086395808e-06,8.138321350324143e-07,1.4088241761712089e-06,1.912723180170619e-06
253,3.223128178595257e-07,1.5921831267201647e-06,1.1450351380548621e-06,3.942184758235602e-05,1.4375671454347676e-06,1.2098523321227075e-06,8.409269089413096e-07,1.276445439917112e-06,1.728503934992501e-06,6.822056137588053e-07,9.695494108267318e-07,1.7330269410569439e-06,1.1867892272907007e-06,8.04975592645269e-07,1.4283188789141004e-06,1.8648852372249902e-06
254,2.620853123981728e-07,1.533205981207632e-06,1.1389069565847634e-06,3.988741060931765e-05,1.4358178891873521e-06,1.2269089926442269e-06,8.766189806595215e-07,1.3134122854228867e-06,1.7286321618667618e-06,6.772536322692682e-07,1.0005416221633516e-06,1.6749257800780246e-06,1.1712239984894352e-06,7.973460573920016e-07,1.4440143475911184e-06,1.8179352051924045e-06
255,2.0550596081982572e-07,1.4739579173859661e-06,1.1366396034504007e-06,4.027521380234848e-05,1.4389063569421269e-06,1.2439807455540027e-06,9.140128407218254e-07,1.346437480862712e-06,1.7276161257091315e-06,6.772995209758713e-07,1.0292290251474502e-06,1.611404689414837e-06,1.15637636957151e-06,7.915435495380227e-07,1.4553689169114968e-06,1.7730087492515428e-06
256,1.5297435443569412e-07,1.415600732324378e-06,1.138085593480057e-06,4.0584759573346735e-05,1.446948710549864e-06,1.2606801327178591e-06,9.528444769654997e-07,1.3752570964107299e-06,1.7260918245556052e-06,6.824796470343141e-07,1.0549980547356547e-06,1.5441722506161475e-06,1.1423100703123273e-06,7.882004887502714e-07,1.4617783396913208e-06,1.7310961499586625e-06
257,1.0510122127111787e-07,1.3593495290756414e-06,1.1429492517762192e-06,4.082388895397221e-05,1.4597300660413614e-06,1.276566820069786e-06,9.927271242788394e-07,1.3996864404401294e-06,1.724703038609604e-06,6.929254913271439e-07,1.0774244310521534e-06,1.475067819192255e-06,1.1288702219660832e-06,7.878910212932466e-07,1.462748222184926e-06,1.6929973770498727e-06
258,6.263992669715237e-08,1.3063296573301158e-06,1.1508952205714701e-06,4.100780722861005e-05,1.4766970553873499e-06,1.2912215187017983e-06,1.0331444310941676e-06,1.4195097991858386e-06,1.7239630779309027e-06,7.087735386509088e-07,1.096277812463846e-06,1.4058666593953128e-06,1.1156817833136811e-06,7.910906594673062e-07,1.4580656824688722e-06,1.6593088950437763e-06
259,2.6399781690054205e-08,1.2574810510048234e-06,1.1615884655053373e-06,4.115657977623365e-05,1.4969835547551784e-06,1.3042881339206903e-06,1.0734971006772103e-06,1.4344669307923867e-06,1.7243050478767356e-06,7.301554316274119e-07,1.111451915498865e-06,1.338147620175211e-06,1.1022260654034255e-06,7.981668346342339e-07,1.4478664508356859e-06,1.6303969200342446e-06
260,-2.7554356721726222e-09,1.2135550632940886e-06,1.1746385127105917e-06,4.129125479317653e-05,1.5195045055757399e-06,1.3154171228270074e-06,1.1131597699332887e-06,1.4443658596541157e-06,1.7262109141326565e-06,7.572095248520237e-07,1.1229377593681268e-06,1.2732587494814888e-06,1.087991449126782e-06,8.09349383709067e-07,1.4325967933597056e-06,1.6063594120435946e-06
261,-2.382635723500502e-08,1.1751450267021645e-06,1.1895344663979211e-06,4.142948723796414e-05,1.543091429458551e-06,1.3241819925860302e-06,1.1515245626015705e-06,1.4492273794786805e-06,1.730235414748382e-06,7.900619136426246e-07,1.1308365294864422e-06,1.2123612237093887e-06,1.0726106783326822e-06,8.246945779880397e-07,1.412951918366184e-06,1.5870476744064612e-06
262,-3.559892125251735e-08,1.1426723057231754e-06,1.205663793904355e-06,4.158322753929493e-05,1.5665916179540803e-06,1.3300520012421064e-06,1.1880649996153047e-06,1.4493888043462305e-06,1.7369045674612122e-06,8.287680997901244e-07,1.1353242837889822e-06,1.156472702563109e-06,1.05587036044548e-06,8.440833311286922e-07,1.38978379273659e-06,1.5721248620405019e-06
263,-3.663792881431384e-08,1.1163348000747376e-06,1.2224240289047183e-06,4.1760547996159274e-05,1.5888995418079664e-06,1.332471041827528e-06,1.2224460930894977e-06,1.4455182731342705e-06,1.7466077308310285e-06,8.732889293171515e-07,1.1365773185565794e-06,1.1064707597037275e-06,1.0376146204313061e-06,8.672751951380627e-07,1.3639348374192684e-06,1.5611660808322228e-06
264,-2.532430594718291e-08,1.0960756985054156e-06,1.2393878534189067e-06,4.196997574927947e-05,1.6089646876773761e-06,1.3310506494946919e-06,1.2546179359766213e-06,1.4384904696178376e-06,1.7595245257194846e-06,9.235386006270284e-07,1.1347374422986107e-06,1.0630842663587654e-06,1.017678433196597e-06,8.939693027866556e-07,1.3360989759052711e-06,1.5538059396513187e-06
265,1.385085133462098e-10,1.0816079789493137e-06,1.2564658585045898e-06,4.2223258301581525e-05,1.625821118337589e-06,1.3257630982465472e-06,1.2847900830432024e-06,1.4291757767528982e-06,1.7755823689002823e-06,9.794804251967117e-07,1.1299235064618309e-06,1.0268884403671522e-06,9.959399547950628e-07,9.238042546875251e-07,1.306864801756208e-06,1.5497742022678627e-06
266,4.1736159001503085e-08,1.0724972768444126e-06,1.2739828726712312e-06,4.2533919663409975e-05,1.6386522548862725e-06,1.3169490711083892e-06,1.3133005233274844e-06,1.4182796526752792e-06,1.7945176272164049e-06,1.0411756942786067e-06,1.1222643990246575e-06,9.98299375189139e-07,9.724369040912047e-07,9.56345093404498e-07,1.2768997229094523e-06,1.5487795571720038e-06
267,1.0161725244385682e-07,1.0682598127085766e-06,1.2926082640500908e-06,4.2912958744055444e-05,1.6468903599683847e-06,1.305111695353068e-06,1.3404968934625575e-06,1.406293752202541e-06,1.8160295892552315e-06,1.108709046504527e-06,1.111946500918478e-06,9.775802898139353e-07,9.473952057568724e-07,9.91125472384517e-07,1.2470382391202471e-06,1.5504234597601448e-06
268,1.8207653934618834e-07,1.0684060023898342e-06,1.3131737479195836e-06,4.336628879016453e-05,1.650323053755455e-06,1.290680109299871e-06,1.366667293693386e-06,1.393554249017656e-06,1.8398548840341596e-06,1.1820477116640768e-06,1.0992559250696705e-06,9.648603753671852e-07,9.211331225907496e-07,1.0276755398077164e-06,1.218162050841249e-06,1.5542097489416462e-06
269,2.856326518136737e-07,1.0724393787736456e-06,1.3364917155430842e-06,4.389616433048076e-05,1.6491442925141657e-06,1.2738954485119886e-06,1.3919870412878223e-06,1.3803754604666413e-06,1.8656659787621793e-06,1.2609440082686075e-06,1.084618917897619e-06,9.6014996910026e-07,8.939832870763982e-07,1.065462425628686e-06,1.1910151218390238e-06,1.5595619375781802e-06
270,4.151585881539544e-07,1.0799101464974593e-06,1.3632879742954224e-06,4.450333644111904e-05,1.6439002727792898e-06,1.2548220684827144e-06,1.4164973107544515e-06,1.3671318601809016e-06,1.8929159427635516e-06,1.3449196818816749e-06,1.0686234824838558e-06,9.63337655563861e-07,8.663107973481489e-07,1.1038172444310146e-06,1.1661114177409702e-06,1.5658637229213648e-06
271,5.739446009011928e-07,1.0905522821907748e-06,1.3942261852875848e-06,4.5186274894582125e-05,1.6353397262496775e-06,1.2334591214465585e-06,1.440112205331415e-06,1.3541949603803284e-06,1.9208173476265645e-06,1.4333093954588202e-06,1.0519555770134294e-06,9.741684738359461e-07,8.385312866107789e-07,1.1419648122097204e-06,1.1437662927136942e-06,1.5726291842322714e-06
272,7.656611531891185e-07,1.1043797066915764e-06,1.4298880396438511e-06,4.593812221721907e-05,1.6242238492005023e-06,1.209898059192262e-06,1.4626192087345188e-06,1.3418022984404896e-06,1.9485174439790476e-06,1.5253323952473134e-06,1.0352859738639072e-06,9.922284736792625e-07,8.110489117123879e-07,1.17911728997246e-06,1.1241852554819784e-06,1.5797227868237679e-06
273,9.94286848016342e-07,1.121615142417295e-06,1.4706963248684715e-06,4.6744957418193234e-05,1.611162625280532e-06,1.1844004665234467e-06,1.4836981168490008e-06,1.329968108854883e-06,1.9753663303480363e-06,1.6201553748034932e-06,1.0192025240411442e-06,1.016946225682332e-06,7.841694390188619e-07,1.214496374470463e-06,1.1075032914393115e-06,1.5874110413809649e-06
274,1.264049288717274e-06,1.1425079547259836e-06,1.5168730371214073e-06,4.758756605545998e-05,1.5965313513529057e-06,1.1573629310859012e-06,1.5029473921423153e-06,1.3184685193565873e-06,2.001049095900736e-06,1.7168836293453104e-06,1.0041675712991475e-06,1.047587823756058e-06,7.580751896932993e-07,1.2473241291415933e-06,1.0937566220678268e-06,1.59622263998071e-06
275,1.5793773666794815e-06,1.1672234014666244e-06,1.5684423381613584e-06,4.844527814913256e-05,1.5804613394442772e-06,1.1292721106003945e-06,1.5198648881269113e-06,1.306917007930815e-06,2.025451750546717e-06,1.8144698922334389e-06,9.904679877447504e-07,1.0832529231380226e-06,7.328700184154873e-07,1.2769057897802829e-06,1.0828604407342652e-06,1.606769548834826e-06
276,1.9448722795907412e-06,1.1958687668387446e-06,1.6252685414424627e-06,4.9299223131969434e-05,1.5628487175555887e-06,1.1006991266963294e-06,1.5338410077023502e-06,1.294926349910998e-06,2.0485075598480815e-06,1.9116491608597343e-06,9.78197408787e-07,1.1229119809124922e-06,7.08652435144117e-07,1.3027629294721814e-06,1.074652509803489e-06,1.6196020254014298e-06
277,2.3653234660033037e-06,1.2285320004376842e-06,1.6871399535239933e-06,5.0133450496972364e-05,1.5433934105439497e-06,1.0722716073589748e-06,1.544226235468592e-06,1.2822798201976918e-06,2.070319149174238e-06,2.006969693524269e-06,9.673016149224885e-07,1.1654613796444223e-06,6.855748429349927e-07,1.3247390718726743e-06,1.0690014871860684e-06,1.6350898789292978e-06
278,2.845766950747162e-06,1.2652380017787168e-06,1.7538235067073178e-06,5.09329166164749e-05,1.5217245700730097e-06,1.0445814814242466e-06,1.550418176894431e-06,1.2690251520688987e-06,2.091401645888517e-06,2.0988661684677803e-06,9.57671766935242e-07,1.2097229940768657e-06,6.638500093492382e-07,1.3430360272685993e-06,1.0658752462335016e-06,1.6533478630023761e-06
279,3.3915303915280885e-06,1.3059018913539525e-06,1.8249992857509076e-06,5.1679091058494544e-05,1.4975512970044403e-06,1.0180793499341166e-06,1.5519308828818614e-06,1.255468507924888e-06,2.1127246422249494e-06,2.185759641401466e-06,9.492064928171665e-07,1.2544074187842348e-06,6.436988560457588e-07,1.3581225565149709e-06,1.0652917432610037e-06,1.6742259651516143e-06
280,4.0081766249983875e-06,1.3503626933719617e-06,1.9001304993234076e-06,5.2347413958697594e-05,1.47072826598165e-06,9.930453966678147e-07,1.5484708539998162e-06,1.2420729873124447e-06,2.135504934293155e-06,2.2662555690855773e-06,9.417872119976697e-07,1.2981754063109717e-06,6.252819494713852e-07,1.3705919052157755e-06,1.0672389571678598e-06,1.6973627904451295e-06
281,4.70128990108552e-06,1.3984551586508788e-06,1.9784055875395676e-06,5.2909950038167294e-05,1.4412482651022086e-06,9.696716102675793e-07,1.5400260648762585e-06,1.2292945801776324e-06,2.160911156875004e-06,2.33944050324112e-06,9.352503835572748e-07,1.3398820266226328e-06,6.0866726123234e-07,1.381105857401929e-06,1.0716408382973983e-06,1.7222725613743974e-06
282,5.4761352122201475e-06,1.4500766913446521e-06,2.0587622031902024e-06,5.3341207026769666e-05,1.409237768264535e-06,9.48182472775463e-07,1.5269479374369192e-06,1.2174516798721804e-06,2.1898722585488667e-06,2.4051107086719474e-06,9.29441685168495e-07,1.378878412504835e-06,5.93866619684782e-07,1.3903622681978734e-06,1.0783442863967545e-06,1.7484018835998349e-06
283,6.337265642008199e-06,1.5052524927484174e-06,2.1398852675496376e-06,5.362324118925857e-05,1.3749642028330098e-06,9.288762390623791e-07,1.5099763019792803e-06,1.2066921317112739e-06,2.2230575550538017e-06,2.463727903562652e-06,9.243016852717686e-07,1.415092444563149e-06,5.809175615837999e-07,1.3989889088944872e-06,1.0871219138846326e-06,1.7751240650354245e-06
284,7.288171504429794e-06,1.5641440851783258e-06,2.2201746943083097e-06,5.374806340449368e-05,1.3388094379805154e-06,9.120743506788784e-07,1.490144618126287e-06,1.197045036296071e-06,2.2609397435860436e-06,2.516077918843903e-06,9.198933028636763e-07,1.4487912497308754e-06,5.699238814174397e-07,1.407441700606321e-06,1.0976906942348302e-06,1.801727660822388e-06
285,8.331164541506106e-06,1.6269448239927886e-06,2.297798236813204e-06,5.371644296097935e-05,1.3011845404988649e-06,8.980746450224399e-07,1.4685844523493502e-06,1.1885221114914205e-06,2.3038811050418e-06,2.5628298543223925e-06,9.163507947364665e-07,1.480286255084322e-06,5.610112474811444e-07,1.4159844952156278e-06,1.1097073894899518e-06,1.8274497542795405e-06
286,9.467730929936905e-06,1.6937618482482356e-06,2.3708482370453927e-06,5.353295797693153e-05,1.2624316744689336e-06,8.871367520838707e-07,1.446334881449753e-06,1.1811789576049325e-06,2.352210925059996e-06,2.604267636486061e-06,9.138406103487134e-07,1.5098011767896646e-06,5.542615357886552e-07,1.4247497682647819e-06,1.1227567504222115e-06,1.8514860066991038e-06
287,1.0699388377541612e-05,1.7646144082270296e-06,2.4374971088333153e-06,5.3199502413249536e-05,1.2228219936735568e-06,8.794503445261323e-07,1.4242267000414012e-06,1.175058390348503e-06,2.406185366336472e-06,2.640343447672287e-06,9.125942895426853e-07,1.5374382578830993e-06,5.496907205652822e-07,1.4338510723506565e-06,1.1363808659846677e-06,1.8729079385704804e-06
288,1.2028780516360645e-05,1.8394967647590428e-06,2.4960985881199306e-06,5.271194347170762e-05,1.1826576333915478e-06,8.750935358054845e-07,1.4028446673893979e-06,1.1700802881420047e-06,2.4657972897512233e-06,2.6709462390689305e-06,9.129201000105785e-07,1.563195677777098e-06,5.472637110158476e-07,1.443443867076033e-06,1.150114403927293e-06,1.8905680154918842e-06
289,1.3460567305727846e-05,1.9184177273387735e-06,2.545289601478214e-06,5.20623747325582e-05,1.142323435715865e-06,8.740244429070281e-07,1.3825654996452807e-06,1.1660178439287589e-06,2.5305891789472783e-06,2.6960879774228624e-06,9.151522363395275e-07,1.5870419569691179e-06,5.469209133966465e-07,1.4536747717682794e-06,1.1635144713012958e-06,1.9031459168186639e-06
290,1.5001746423118653e-05,2.0014567187588006e-06,2.5841626372214407e-06,5.12442734377785e-05,1.1022392110578757e-06,8.76099494218405e-07,1.36365869585146e-06,1.1626189409680509e-06,2.5996439011013098e-06,2.715809464212479e-06,9.196103163640859e-07,1.6089567113183948e-06,5.485987178368923e-07,1.4646087254197035e-06,1.176261836103485e-06,1.9093953718317407e-06
291,1.6661303109802627e-05,2.0888386998599736e-06,2.612492098054749e-06,5.0256959875877866e-05,1.0628345988756838e-06,8.810947522112725e-07,1.3464112277613961e-06,1.159776857749421e-06,2.6717585560479997e-06,2.729931465792691e-06,9.26566015765649e-07,1.6288824819986655e-06,5.522162606512956e-07,1.4762205923844328e-06,1.1882828157984172e-06,1.9084880523275793e-06
292,1.8449289923756195e-05,2.18090793595744e-06,2.630894104973882e-06,4.9107836771898044e-05,1.0245636368042276e-06,8.887320863974774e-07,1.3312202562487946e-06,1.1575942524630603e-06,2.745622071253399e-06,2.7379358102391315e-06,9.361824634953989e-07,1.6466169489829749e-06,5.576277076818288e-07,1.4884350221054071e-06,1.1997287962517657e-06,1.900285200292086e-06
293,2.0375448725549614e-05,2.2780031546465223e-06,2.6408099240475285e-06,4.781224647347075e-05,9.878765796235625e-07,8.986971855324471e-07,1.318579700295195e-06,1.1563189757280648e-06,2.8198565105766993e-06,2.739089663775865e-06,9.484848060121097e-07,1.6617296995807357e-06,5.64594775244728e-07,1.5011711714064e-06,1.2108314057885102e-06,1.8853791776969842e-06
294,2.2447529699578962e-05,2.380413868217313e-06,2.6443212206651065e-06,4.6391872856194316e-05,9.531599598391732e-07,9.106540563899668e-07,1.3089434469036822e-06,1.1562759267536513e-06,2.8930294998735845e-06,2.7327085183222434e-06,9.633998569443103e-07,1.6736218138654531e-06,5.72815072212192e-07,1.5143830040485939e-06,1.2217834051579049e-06,1.864823817980945e-06
295,2.466978925212086e-05,2.488416181681476e-06,2.6438706048742882e-06,4.487278146385979e-05,9.20685898308011e-07,9.243201091489151e-07,1.3025801980947093e-06,1.1578477051553648e-06,2.9637825331492624e-06,2.718385408710414e-06,9.8079184959904e-07,1.6816692648708986e-06,5.819743502354001e-07,1.5280877337040738e-06,1.232675340955124e-06,1.8397377771073312e-06
296,2.704226129523655e-05,2.6021962469245995e-06,2.641937868689142e-06,4.32833200863715e-05,8.905767031078407e-07,9.39591170310308e-07,1.2995535724287894e-06,1.1614224356142609e-06,3.0309780891168367e-06,2.6960594448239536e-06,1.0004402556611912e-06,1.6852769277971614e-06,5.91777230343953e-07,1.5423436835804098e-06,1.2434454899352595e-06,1.8110527291995066e-06
297,2.956068287310291e-05,2.7216978534004694e-06,2.640735796739593e-06,4.165165384749264e-05,8.628185797921197e-07,9.565946673772817e-07,1.2998102945023762e-06,1.1672831473362104e-06,3.093719117536266e-06,2.6659331437814356e-06,1.0220125718091685e-06,1.6838775440142744e-06,6.019374595609386e-07,1.5571575800157645e-06,1.2538331422699374e-06,1.7794233415277785e-06
298,3.221625221884793e-05,2.846565476345075e-06,2.6420471165723098e-06,4.000296565685809e-05,8.373417629977261e-07,9.756119993052665e-07,1.3032430149442321e-06,1.1755283862786515e-06,3.151303214550107e-06,2.628341388009108e-06,1.0450876760882635e-06,1.6769591776726477e-06,6.121422697542369e-07,1.5723718079945428e-06,1.2633568597137048e-06,1.745220230838622e-06
299,3.4995146638121865e-05,2.9761224257407097e-06,2.6472609351308966e-06,3.8357463299428666e-05,8.140928699366717e-07,9.969343831951988e-07,1.3096795671155775e-06,1.186089285440057e-06,3.2032069752674143e-06,2.583599170482168e-06,1.069200859209318e-06,1.6641194918359766e-06,6.220363360918812e-07,1.5876063637251476e-06,1.2713625217567197e-06,1.708642011443706e-06
300,3.787911265566515e-05,3.10929723899254e-06,2.6575196514492944e-06,3.673116374154816e-05,7.930329594196355e-07,1.0207395934623434e-06,1.3188795574924243e-06,1.198796757090456e-06,3.2489940388723164e-06,2.531836455292916e-06,1.0938729258608785e-06,1.6452274812473785e-06,6.312659773053302e-07,1.602269947393881e-06,1.2771106074275999e-06,1.6699760351919113e-06
301,4.084772327480642e-05,3.2446496286658707e-06,2.673875886321998e-06,3.513945433041852e-05,7.741385759613646e-07,1.047030697159832e-06,1.3305498088142312e-06,1.2133954586303593e-06,3.288060159892105e-06,2.473023197406688e-06,1.118653593774626e-06,1.6206428835591646e-06,6.39588066197428e-07,1.6156164627439654e-06,1.279853887984637e-06,1.6298378873013262e-06
302,4.388046398968106e-05,3.3806257640355044e-06,2.6974161293271535e-06,3.360056087311207e-05,7.574743852273812e-07,1.0756308556115315e-06,1.3443068002633543e-06,1.2294828977528354e-06,3.3194349409974707e-06,2.40735220155833e-06,1.143210778184487e-06,1.5912326675992986e-06,6.469861264583072e-07,1.6268517375739097e-06,1.2789689448817445e-06,1.5891413204030794e-06
303,4.695613407135915e-05,3.5159295408669726e-06,2.7292790182696396e-06,3.213632171471104e-05,7.432330642657158e-07,1.1062068971861916e-06,1.3596213740705952e-06,1.2464575688765915e-06,3.3418887609343587e-06,2.3357016329799273e-06,1.1673979082863764e-06,1.5581135104131728e-06,6.536812954112765e-07,1.6352763719350867e-06,1.2741187904709753e-06,1.548846521066991e-06
304,5.00496601360591e-05,3.6498292112497904e-06,2.7705132806882167e-06,3.076998425596682e-05,7.316770652380803e-07,1.1383073022203414e-06,1.3758180151816278e-06,1.263534815474101e-06,3.3542901878051695e-06,2.259717418028408e-06,1.1912014236790063e-06,1.5223285995517984e-06,6.600078266331011e-07,1.6404114980218083e-06,1.2652610321642967e-06,1.509746904269664e-06
305,5.3130109073978454e-05,3.7823081757992487e-06,2.8218789724089848e-06,2.9522741666127194e-05,7.230803972371798e-07,1.1714242569272851e-06,1.3920879408139392e-06,1.279810747305582e-06,3.356002837583007e-06,2.1814530259863702e-06,1.2146279772943987e-06,1.4846473146241452e-06,6.662765426819577e-07,1.6420895782311979e-06,1.2524828614996767e-06,1.4723783757709322e-06
306,5.616307037622022e-05,3.91401434655137e-06,2.883754656645014e-06,2.8411888677720167e-05,7.17734276239751e-07,1.2050713856818676e-06,1.407474751479632e-06,1.294332790001984e-06,3.3471294803381227e-06,2.1029334310453947e-06,1.237655156052597e-06,1.4455280577029238e-06,6.727252871130003e-07,1.640497788974174e-06,1.235899992464551e-06,1.4370084191562618e-06
307,5.911557401494431e-05,4.0459820663826444e-06,2.956129136359023e-06,2.7451873481644472e-05,7.159692781038651e-07,1.238809343142877e-06,1.4209204514448996e-06,1.3061630901012226e-06,3.328503226228944e-06,2.025979337307158e-06,1.2602214176373024e-06,1.4052283882197932e-06,6.79529051700473e-07,1.6361218642770238e-06,1.2157430819178523e-06,1.4037216044336286e-06
308,6.19597175760208e-05,4.179181792460163e-06,3.038577035920473e-06,2.6656286673972104e-05,7.18144703193591e-07,1.2721647502159778e-06,1.4314716967409073e-06,1.3144754309437214e-06,3.3015214701104686e-06,1.952270483829163e-06,1.2822242709577964e-06,1.3639761765683965e-06,6.868315906964596e-07,1.6295935693701681e-06,1.1924636416878648e-06,1.3725896082518902e-06
309,6.467348861039885e-05,4.314084118004144e-06,3.1302866550123056e-06,2.6038552022355307e-05,7.246002239582328e-07,1.3045138618013107e-06,1.4385413828563982e-06,1.3187346720544496e-06,3.2679941192916625e-06,1.8834224316235871e-06,1.303568823506288e-06,1.3220274087523318e-06,6.947734675030681e-07,1.6215371503932856e-06,1.1666891905206764e-06,1.3438247462170479e-06
310,6.723933512002172e-05,4.450454913878407e-06,3.230225970325695e-06,2.5611085210535723e-05,7.355910773453365e-07,1.3350672318626403e-06,1.441982909473501e-06,1.3188982565800005e-06,3.2300167241412996e-06,1.8209517321747599e-06,1.3241952914633123e-06,1.2795562419159274e-06,7.034739857803442e-07,1.6124814359542842e-06,1.1390930286743716e-06,1.3178180500595893e-06
311,6.964195647157012e-05,4.587431649657485e-06,3.337369083662877e-06,2.5383654992824678e-05,7.512448123140176e-07,1.362991669544612e-06,1.4419008546106384e-06,1.3154710545820992e-06,3.189765822947187e-06,1.7661629954965509e-06,1.3439924989747084e-06,1.236529862551653e-06,7.129799157312259e-07,1.6028035130378283e-06,1.110326536198204e-06,1.2950629350767403e-06
312,7.186708737272183e-05,4.723764872577219e-06,3.450885224921545e-06,2.536187365172228e-05,7.71562058234056e-07,1.387544215012143e-06,1.4383748027634242e-06,1.3093264294913189e-06,3.149211981876174e-06,1.7200389945992822e-06,1.3627014945044852e-06,1.192742408045183e-06,7.232371648600783e-07,1.5926806951601822e-06,1.0809999334245375e-06,1.2760637572058706e-06
313,7.390198656891586e-05,4.858102828649519e-06,3.570244482293445e-06,2.5546779391044707e-05,7.964333534623075e-07,1.4080531611704115e-06,1.431333701292023e-06,1.3014253726553293e-06,3.109860110902757e-06,1.6831895688228615e-06,1.3799537816475752e-06,1.1480623118970569e-06,7.340931847118648e-07,1.5821130737539078e-06,1.0516273531867147e-06,1.261298318971781e-06
314,7.573620876373513e-05,4.989239156419445e-06,3.695209890287097e-06,2.5935633856087482e-05,8.25629336962675e-07,1.4237633559324789e-06,1.4206628224411725e-06,1.2926415182689107e-06,3.0726073239325003e-06,1.6558653305358738e-06,1.395391601584583e-06,1.1027433488358946e-06,7.453174131098531e-07,1.571002487615762e-06,1.0225842422972063e-06,1.2511938472436882e-06
315,7.736003307553347e-05,5.116277460402475e-06,3.825776288227253e-06,2.6522908714531788e-05,8.587743962620598e-07,1.4337451169953369e-06,1.4064118848737152e-06,1.2837180002893034e-06,3.0377322209415522e-06,1.6380136778072372e-06,1.4087371047691263e-06,1.0575048479835735e-06,7.566499164534555e-07,1.5591581887321717e-06,9.941273691845096e-07,1.246056920457931e-06
316,7.87600579889969e-05,5.2387083796163075e-06,3.962185763728616e-06,2.730042508075049e-05,8.953567515582593e-07,1.4370081834376891e-06,1.3888989223625725e-06,1.2752385406016104e-06,3.0050035797708e-06,1.6294069299252802e-06,1.4198053069368383e-06,1.0133271512396464e-06,7.678502147210357e-07,1.546237480486954e-06,9.664136914778494e-07,1.2459857894493633e-06
317,7.991681893275768e-05,5.356400580948959e-06,4.105050419387648e-06,2.8256480945286226e-05,9.347902664698502e-07,1.432789426853262e-06,1.3686149906988793e-06,1.2675835007296215e-06,2.973886569158585e-06,1.6298520735603705e-06,1.428513496710857e-06,9.712707091168046e-07,7.786908542777248e-07,1.5317874785808503e-06,9.394852452231008e-07,1.2508255941952905e-06
318,8.081035007356827e-05,5.469527181779119e-06,4.255486007901402e-06,2.937448750551725e-05,9.764707066047795e-07,1.4208536731161564e-06,1.3460237055601959e-06,1.2609290282001203e-06,2.9437639305341664e-06,1.6393158731715362e-06,1.434859937433145e-06,9.324926795046695e-07,7.889214859143956e-07,1.5154359159567414e-06,9.13274871626725e-07,1.260172615665815e-06
319,8.143148701419518e-05,5.578529182409944e-06,4.415132878469393e-06,3.063189364108678e-05,1.019760113989357e-06,1.4016027329065338e-06,1.3214506096415045e-06,1.2553340567991713e-06,2.9140409738835763e-06,1.657818386891177e-06,1.4388441760640768e-06,8.982681941945065e-07,7.982941456782353e-07,1.497084283487053e-06,8.877045542594324e-07,1.273415679137882e-06
320,8.179062348129073e-05,5.684213767240399e-06,4.585959012658648e-06,3.199975484022945e-05,1.0639142321271137e-06,1.3759232094655372e-06,1.295143816493133e-06,1.2508958945248757e-06,2.8840952130175467e-06,1.6852366346556656e-06,1.4404044313411593e-06,8.698869166568557e-07,8.066585066500769e-07,1.4769500445063614e-06,8.628501098196129e-07,1.2898289508544916e-06
321,8.191987901354803e-05,5.787919771373617e-06,4.769831072776825e-06,3.34426645476161e-05,1.1080481492297995e-06,1.3449214480260286e-06,1.2673919675372737e-06,1.247863609875991e-06,2.853275969684043e-06,1.7212694193959992e-06,1.4394470257605424e-06,8.485561624755751e-07,8.140131953495088e-07,1.4554809164610035e-06,8.390154807758674e-07,1.3087370318765049e-06
322,8.186983348864935e-05,5.891555527312285e-06,4.968037245122263e-06,3.491937877532863e-05,1.151210457127615e-06,1.3097196768703047e-06,1.238563738996453e-06,1.2466381649332812e-06,2.821151240422839e-06,1.7656133585599341e-06,1.4359238732849563e-06,8.35391847780018e-07,8.204631014416866e-07,1.4332542362877791e-06,8.166452926946146e-07,1.329677322340259e-06
323,8.17023825622644e-05,5.997386263944757e-06,5.1810325626837e-06,3.6385397625647636e-05,1.1925333305314668e-06,1.271359793238653e-06,1.2090623269142695e-06,1.247690443381858e-06,2.7878080235251937e-06,1.8181722752665663e-06,1.4298816566446243e-06,8.314443452700965e-07,8.261696396330924e-07,1.410874961081698e-06,7.961811217301912e-07,1.352415091106515e-06
324,8.148148496859114e-05,6.107598968775162e-06,5.408489637545094e-06,3.7797708173674254e-05,1.2313561957946385e-06,1.2307920150659511e-06,1.1792725017814548e-06,1.2514482685575452e-06,2.75390304736046e-06,1.8790764501957805e-06,1.4214671085229412e-06,8.377415813616123e-07,8.313227833708531e-07,1.3888959629952113e-06,7.77966712624755e-07,1.3768404589117095e-06
325,8.12643788682289e-05,6.223787666231333e-06,5.649517196023468e-06,3.9119952776482794e-05,1.267251805960504e-06,1.1889014295000823e-06,1.1495533400785334e-06,1.258240198392992e-06,2.720447522413903e-06,1.9484934839071357e-06,1.4108950694395903e-06,8.55327654311108e-07,8.36100352366186e-07,1.367844197944287e-06,7.62220112668523e-07,1.4029080010059748e-06
326,8.109516633090319e-05,6.346591051327535e-06,5.902875650442459e-06,4.0325925870273886e-05,1.2999848202930542e-06,1.1465070309518273e-06,1.1202449030465864e-06,1.2683530443705938e-06,2.6884683677228447e-06,2.026484069517657e-06,1.3984046691409426e-06,8.852438385305968e-07,8.406382570295633e-07,1.3482794496366018e-06,7.49038120361088e-07,1.4306341275015474e-06
327,8.10012636083598e-05,6.475649849686102e-06,6.1670631244740905e-06,4.140033566600201e-05,1.3294832354282626e-06,1.1043100125502377e-06,1.0916447125137708e-06,1.2821117961704863e-06,2.658684738566205e-06,2.113084778136471e-06,1.3842563070725185e-06,9.284835927377033e-07,8.450169761618089e-07,1.3307408997788792e-06,7.384022211530277e-07,1.4600477631717877e-06
328,8.09920239828736e-05,6.609754917838803e-06,6.4402272353202195e-06,4.233675109449398e-05,1.3558398033384852e-06,1.0628384864048642e-06,1.0640063203623733e-06,1.2998606069376232e-06,2.631327853224571e-06,2.2084502611316548e-06,1.3687655896496562e-06,9.859924026637015e-07,8.492503186934852e-07,1.315617670572311e-06,7.301846045987957e-07,1.4910692182821816e-06
329,8.105830538489182e-05,6.7468560740722064e-06,6.720019862803168e-06,4.31330580634784e-05,1.3792863278112637e-06,1.0224481718714255e-06,1.0375980059410133e-06,1.3218500909002571e-06,2.606187672505232e-06,2.3128003618745476e-06,1.3523019310253249e-06,1.0586922630015006e-06,8.53312109525497e-07,1.3030697393155933e-06,7.241529340112964e-07,1.5234164538959309e-06
